10um bubble,,duplicate,,
Wavelength (nm),Abs,Wavelength (nm),Abs,
499.9981689,0.2525714636,499.9981689,0.2526645958,
499.5040283,0.2518995702,499.5040283,0.2524061799,
499.0098877,0.2528823912,499.0098877,0.2524822056,
498.515625,0.2525098026,498.515625,0.252790004,
497.9832764,0.2525006235,497.9832764,0.2529819608,
497.4889221,0.2531328797,497.4889221,0.2528518438,
496.9945679,0.2522523999,496.9945679,0.2539390028,
496.5000916,0.2525716126,496.5000916,0.2542261481,
496.0056458,0.2541659176,496.0056458,0.2538799644,
495.5110779,0.2534698546,495.5110779,0.2540746033,
495.0164185,0.2534589767,495.0164185,0.2533444762,
494.4837952,0.2531406581,494.4837952,0.2525317371,
493.9891052,0.2523731887,493.9891052,0.2525667548,
493.4943542,0.2515279055,493.4943542,0.2520677149,
492.9995117,0.2494413853,492.9995117,0.2520324886,
492.5046997,0.2524019182,492.5046997,0.2523324192,
492.0097656,0.2524566352,492.0097656,0.2536508441,
491.5148621,0.2538311779,491.5148621,0.2549431026,
490.9817505,0.2542722225,490.9817505,0.2543029487,
490.4866638,0.2518159449,490.4866638,0.2531402409,
489.9915466,0.2529960573,489.9915466,0.2529844642,
489.4964294,0.2519538701,489.4964294,0.2519527078,
489.0012207,0.2497305572,489.0012207,0.2532681525,
488.5058899,0.2526714504,488.5058899,0.253152281,
488.0106506,0.2542795539,488.0106506,0.2541816831,
487.5152893,0.2542044818,487.5152893,0.2555387616,
486.98172,0.2542579174,486.98172,0.2546009719,
486.4863586,0.253215462,486.4863586,0.2543342412,
485.9907837,0.2532586753,485.9907837,0.2533623874,
485.4952393,0.2505789101,485.4952393,0.2515373826,
484.9996338,0.2513560653,484.9996338,0.2508288622,
484.5039978,0.2518073916,484.5039978,0.2509700656,
484.0082397,0.25364393,484.0082397,0.2545899749,
483.5125122,0.254386127,483.5125122,0.2550634146,
483.0166931,0.2532772422,483.0166931,0.2551731467,
482.4826965,0.2550634146,482.4826965,0.2559981048,
481.9868469,0.2552818954,481.9868469,0.2551477551,
481.4908752,0.2553314865,481.4908752,0.2557507753,
480.994812,0.2539145947,480.994812,0.255415082,
480.4988403,0.2541317642,480.4988403,0.2552725673,
480.0026855,0.2544170618,480.0026855,0.2558293343,
479.5065308,0.2556774914,479.5065308,0.2560176253,
479.0103149,0.2543011308,479.0103149,0.2553854585,
478.5141296,0.2555501461,478.5141296,0.2563978136,
478.0177612,0.2553877234,478.0177612,0.2564784586,
477.4831848,0.2557358742,477.4831848,0.2570278943,
476.986908,0.2556668222,476.986908,0.2574474514,
476.490387,0.2567718923,476.490387,0.2567846775,
475.9939575,0.2562170625,475.9939575,0.2580594718,
475.497345,0.2557207644,475.497345,0.257208854,
475.0007629,0.255621016,475.0007629,0.257219851,
474.5041199,0.2558950782,474.5041199,0.2578543127,
474.0074768,0.2574221194,474.0074768,0.2586508095,
473.5106812,0.255405575,473.5106812,0.2574737966,
473.0139465,0.2564978302,473.0139465,0.2587759197,
472.5170593,0.2573227286,472.5170593,0.2599183619,
471.9819641,0.2584352791,471.9819641,0.2605148852,
471.4850769,0.259226799,471.4850769,0.2596134841,
470.9880981,0.2589897811,470.9880981,0.2611177564,
470.4910278,0.2581374645,470.4910278,0.2607690394,
469.993988,0.2603135407,469.993988,0.2607480586,
469.4967957,0.2602089047,469.4967957,0.2614242435,
468.9996338,0.2591094971,468.9996338,0.2612496018,
468.5024414,0.2606208026,468.5024414,0.2627549767,
468.005127,0.2598451972,468.005127,0.2627134919,
467.5078125,0.2621131241,467.5078125,0.2625653446,
467.010498,0.2621728182,467.010498,0.2635228038,
466.5130615,0.262927562,466.5130615,0.2628146112,
466.0155945,0.2609737515,466.0155945,0.2638633251,
465.5180969,0.262691021,465.5180969,0.2632444203,
464.9822693,0.2632480562,464.9822693,0.2642563879,
464.4846497,0.2648046315,464.4846497,0.2656702399,
463.98703,0.2645301819,463.98703,0.2654929757,
463.4893188,0.2644311488,463.4893188,0.2653970122,
462.9915161,0.2644348145,462.9915161,0.2645878494,
462.4938049,0.2645201981,462.4938049,0.2649767995,
461.9959106,0.2646793425,461.9959106,0.2645148039,
461.4980469,0.2635172904,461.4980469,0.2650664747,
461.0000916,0.2642538249,461.0000916,0.2653911412,
460.5021362,0.266587019,460.5021362,0.2669487298,
460.0040894,0.2668951452,460.0040894,0.2676720023,
459.5060425,0.2667201161,459.5060425,0.2676475048,
459.007843,0.2671064734,459.007843,0.2678528428,
458.5097656,0.2683804631,458.5097656,0.2677530348,
458.0115051,0.2682665288,458.0115051,0.2683436871,
457.5132141,0.2680964172,457.5132141,0.2673640549,
457.0149231,0.2680927217,457.0149231,0.268573463,
456.516571,0.2665756941,456.516571,0.2688191533,
456.018158,0.2679791749,456.018158,0.2674525082,
455.4813843,0.268709749,455.4813843,0.2686060369,
454.9829102,0.269754082,454.9829102,0.2679680586,
454.4842834,0.2693235576,454.4842834,0.268786937,
453.9857483,0.2695527077,453.9857483,0.2692230642,
453.4870605,0.2693020403,453.4870605,0.2696715593,
452.9883728,0.2693498433,452.9883728,0.2702650726,
452.4897156,0.271053195,452.4897156,0.2705852985,
451.9909363,0.2708740234,451.9909363,0.2707469761,
451.4920654,0.2708944678,451.4920654,0.270231396,
450.9932251,0.2710180283,450.9932251,0.2704772949,
450.4942627,0.2706144154,450.4942627,0.2709297836,
449.9953308,0.2707476616,449.9953308,0.2703450322,
449.4963074,0.2698680162,449.4963074,0.2688871026,
448.9972839,0.2696614861,448.9972839,0.2705726922,
448.4981689,0.2711785138,448.4981689,0.2702486813,
447.999054,0.2708130181,447.999054,0.2704257965,
447.4998474,0.2703933418,447.4998474,0.2708445191,
447.0005798,0.2718500495,447.0005798,0.2708590031,
446.5013428,0.2706713676,446.5013428,0.2703287899,
446.0020142,0.2706689537,446.0020142,0.2715853751,
445.5026245,0.271397382,445.5026245,0.272116363,
445.0032043,0.2724500299,445.0032043,0.2717445791,
444.5037537,0.2715530097,444.5037537,0.2720066309,
444.0042419,0.272185117,444.0042419,0.2728788555,
443.5046997,0.2731516361,443.5046997,0.2721897662,
443.0050964,0.2737647593,443.0050964,0.27184093,
442.5054321,0.2731700838,442.5054321,0.2734977305,
442.0057373,0.2739744782,442.0057373,0.2734957635,
441.5060425,0.2737012804,441.5060425,0.2734046876,
441.0062561,0.2746944427,441.0062561,0.2745643556,
440.5064697,0.273042649,440.5064697,0.2747923732,
440.0065613,0.2736905217,440.0065613,0.2746063769,
439.5066223,0.2711008191,439.5066223,0.274269253,
439.0066833,0.2736637294,439.0066833,0.2746226192,
438.5066833,0.2747263014,438.5066833,0.2747264504,
438.0066528,0.2748708427,438.0066528,0.2758025527,
437.5065613,0.2758743763,437.5065613,0.2746943235,
437.0064392,0.2755752206,437.0064392,0.274925977,
436.5061951,0.2750080824,436.5061951,0.2758610249,
436.006012,0.2738184333,436.006012,0.2751584053,
435.5057373,0.2757376432,435.5057373,0.2755396068,
435.0054016,0.272411257,435.0054016,0.2761739194,
434.5050964,0.2748307288,434.5050964,0.275054574,
434.0046997,0.2762454152,434.0046997,0.2766344249,
433.5042419,0.2760016024,433.5042419,0.2763138711,
433.0036926,0.2768912315,433.0036926,0.2771058679,
432.5031738,0.2768278718,432.5031738,0.2777953744,
432.0026245,0.2774856687,432.0026245,0.2766426206,
431.5019836,0.2773028016,431.5019836,0.2774289846,
431.0012817,0.2773788869,431.0012817,0.2780419588,
430.5006104,0.2784256637,430.5006104,0.2786634564,
429.9998779,0.2783282995,429.9998779,0.2771126032,
429.4990845,0.2780596316,429.4990845,0.277233094,
428.99823,0.2787935138,428.99823,0.2781945765,
428.497345,0.2772462368,428.497345,0.2787872851,
427.9963989,0.2782481313,427.9963989,0.2783825994,
427.4953918,0.2782666385,427.4953918,0.2779380977,
426.9943848,0.2781042755,426.9943848,0.2782769799,
426.4933167,0.2793131471,426.4933167,0.2790835202,
425.992218,0.2781178653,425.992218,0.2788291872,
425.4911194,0.2786787748,425.4911194,0.2783741951,
424.9898987,0.2783187628,424.9898987,0.2784936428,
424.4886475,0.2791040242,424.4886475,0.2791857421,
423.9873657,0.281193316,423.9873657,0.2796359956,
423.4860535,0.2805531919,423.4860535,0.2791640759,
422.9847107,0.2792352736,422.9847107,0.279479593,
422.4833374,0.2791627347,422.4833374,0.2781738043,
421.9818726,0.2786244452,421.9818726,0.2794055045,
421.5189819,0.2803812027,421.5189819,0.2775967717,
421.017395,0.2807681262,421.017395,0.2783889472,
420.5158081,0.2803254724,420.5158081,0.2785556614,
420.0142212,0.2792728841,420.0142212,0.2794588208,
419.5125732,0.2796995342,419.5125732,0.2789846659,
419.0108643,0.2800652087,419.0108643,0.2796325088,
418.5091248,0.2800317109,418.5091248,0.2803130448,
418.0073242,0.2801400721,418.0073242,0.2800442874,
417.5054932,0.2802097797,417.5054932,0.2801790833,
417.0036316,0.2802934945,417.0036316,0.2805753648,
416.5016785,0.2802952528,416.5016785,0.2805537283,
415.9997559,0.280195266,415.9997559,0.2802030146,
415.4977417,0.27996099,415.4977417,0.2808608711,
414.995697,0.2821033001,414.995697,0.2805379331,
414.4936218,0.2803971469,414.4936218,0.2820171714,
413.9914551,0.2821027339,413.9914551,0.2803657949,
413.4892883,0.2815885842,413.4892883,0.2816312611,
412.9871216,0.2814543247,412.9871216,0.2814643085,
412.4848633,0.2817367315,412.4848633,0.2818185091,
411.9825745,0.281847775,411.9825745,0.2820100486,
411.5188599,0.2821195126,411.5188599,0.2816930115,
411.01651,0.2833787501,411.01651,0.2828163207,
410.5140991,0.2821498215,410.5140991,0.281797111,
410.0116272,0.2829925716,410.0116272,0.2830329537,
409.5090637,0.2826625705,409.5090637,0.2821689546,
409.0065613,0.2822156549,409.0065613,0.282187134,
408.5039368,0.2827700675,408.5039368,0.2818487287,
408.0013428,0.2828205526,408.0013428,0.2821726501,
407.4986877,0.2823985219,407.4986877,0.2821824253,
406.9959717,0.2830459476,406.9959717,0.2815432549,
406.4932251,0.2820227444,406.4932251,0.2825358212,
405.990448,0.2824566662,405.990448,0.2827148139,
405.4875793,0.2832937837,405.4875793,0.2828463614,
404.9846802,0.283931762,404.9846802,0.2843856812,
404.481781,0.2835694253,404.481781,0.283549577,
404.0175476,0.2837373316,404.0175476,0.2837312222,
403.5145569,0.2828027904,403.5145569,0.2824614644,
403.0114746,0.28287521,403.0114746,0.2824295163,
402.5084229,0.2830618918,402.5084229,0.2818915248,
402.0053101,0.2824363112,402.0053101,0.2813143134,
401.5021362,0.2822006643,401.5021362,0.2823131084,
400.9989319,0.2823610306,400.9989319,0.2828429043,
400.4956665,0.2828167677,400.4956665,0.2820365429,
399.9924316,0.2837156057,399.9924316,0.2834555507,
399.4890747,0.2838014364,399.4890747,0.282715261,
398.9857178,0.2835638523,398.9857178,0.2832638621,
398.4822998,0.2834255695,398.4822998,0.2830778062,
398.0175781,0.2838430703,398.0175781,0.2836532295,
397.5140991,0.2841829956,397.5140991,0.2820308506,
397.0105896,0.2836428881,397.0105896,0.2827861607,
396.507019,0.2842800617,396.507019,0.2828835249,
396.003418,0.2838184834,396.003418,0.2832965255,
395.4997559,0.2845650911,395.4997559,0.2834697664,
394.9960632,0.2858418822,394.9960632,0.2855060101,
394.4923706,0.2856732905,394.4923706,0.2849536538,
393.9885864,0.2859077752,393.9885864,0.2847524881,
393.4848022,0.2850292623,393.4848022,0.28334409,
392.9809265,0.2840854526,392.9809265,0.28342098,
392.5158386,0.2854312658,392.5158386,0.2856804729,
392.0119019,0.287784785,392.0119019,0.2881413102,
391.5079651,0.2890903056,391.5079651,0.2877056897,
391.0039673,0.2885015011,391.0039673,0.2866683006,
390.4999084,0.2873987257,390.4999084,0.2866499722,
389.9958191,0.2876200378,389.9958191,0.2870980203,
389.4916992,0.2881621718,389.4916992,0.2872970998,
388.9875488,0.287830621,388.9875488,0.2870423496,
388.4833374,0.2883446515,388.4833374,0.2877109647,
388.0178833,0.28988415,388.0178833,0.2892121673,
387.5135803,0.2887871563,387.5135803,0.2894639969,
387.0092773,0.2904575467,387.0092773,0.2903734744,
386.5049438,0.290029794,386.5049438,0.2907982767,
386.0005493,0.2913214564,386.0005493,0.2913030684,
385.4960938,0.2906222343,385.4960938,0.2905924618,
384.9916382,0.2922077179,384.9916382,0.2915967405,
384.4871216,0.2945005596,384.4871216,0.2924478054,
383.9825439,0.2947669625,383.9825439,0.2946901619,
383.5168152,0.2949478924,383.5168152,0.295021385,
383.0121765,0.2946428657,383.0121765,0.2939220071,
382.5074768,0.295339942,382.5074768,0.2947739661,
382.0028076,0.2953081131,382.0028076,0.2944317162,
381.4980469,0.2959355116,381.4980469,0.2953062356,
380.9932556,0.2970434129,380.9932556,0.2955011129,
380.4884644,0.2983912528,380.4884644,0.2973068655,
379.9835815,0.298214972,379.9835815,0.2977794707,
379.5175171,0.2991916537,379.5175171,0.2982449234,
379.0125732,0.2987813056,379.0125732,0.2991456985,
378.5076294,0.3002414107,378.5076294,0.3018916845,
378.002594,0.3040155768,378.002594,0.3043085933,
377.4975281,0.3047583103,377.4975281,0.3046221137,
376.9924622,0.303952843,376.9924622,0.3042668998,
376.4873352,0.304417491,376.4873352,0.3047537804,
375.9821777,0.3052585721,375.9821777,0.3039669693,
375.5158081,0.3049712479,375.5158081,0.3045850992,
375.0105896,0.3057047725,375.0105896,0.3042546511,
374.5053101,0.3064715564,374.5053101,0.3050441742,
374,0.3050170839,374,0.3055755496,
373.4946289,0.3055811524,373.4946289,0.3048977256,
372.9892578,0.3054341674,372.9892578,0.305713594,
372.4838257,0.3065886497,372.4838257,0.3062916696,
372.0172119,0.3080896437,372.0172119,0.3076209724,
371.5117188,0.3098308146,371.5117188,0.3091451526,
371.0061646,0.3102992773,371.0061646,0.309004873,
370.5006104,0.3105150759,370.5006104,0.3101638556,
369.9949951,0.3120341301,369.9949951,0.3098659217,
369.4893494,0.3119011223,369.4893494,0.311041981,
368.9836426,0.3130116761,368.9836426,0.3125023842,
368.5168457,0.3125166893,368.5168457,0.3126155734,
368.0110474,0.3149037063,368.0110474,0.3142924011,
367.5052795,0.3163070083,367.5052795,0.3150239885,
366.9994507,0.3165533543,366.9994507,0.3155640066,
366.4935608,0.3164646626,366.4935608,0.3156710267,
365.9876099,0.3167397976,365.9876099,0.3160475791,
365.4816895,0.3168430626,365.4816895,0.3174071014,
365.0146179,0.3184236586,365.0146179,0.3181523979,
364.5085754,0.3204591572,364.5085754,0.3193134964,
364.002533,0.3198180497,364.002533,0.3196863234,
363.4964294,0.3201308846,363.4964294,0.3202362061,
362.9902954,0.323374778,362.9902954,0.3231459856,
362.4841309,0.3273552358,362.4841309,0.3270668685,
362.0168457,0.3295054138,362.0168457,0.3283652365,
361.5106506,0.3275791705,361.5106506,0.3266633153,
361.004364,0.3286375105,361.004364,0.3268154263,
360.4980164,0.3300418556,360.4980164,0.3288717866,
359.9916687,0.3302577734,359.9916687,0.3299057186,
359.4852905,0.3279694021,359.4852905,0.3284550309,
359.0178223,0.3301124275,359.0178223,0.3299842775,
358.5113525,0.3339374661,358.5113525,0.3331292272,
358.0048523,0.3371578753,358.0048523,0.3369396329,
357.4983215,0.3352731466,357.4983215,0.3369835317,
356.9917603,0.3355614841,356.9917603,0.336517185,
356.4851685,0.3386358619,356.4851685,0.3387615383,
356.0174866,0.3407350779,356.0174866,0.3398388624,
355.5108032,0.3427484632,355.5108032,0.3402140439,
355.0040894,0.3439185917,355.0040894,0.3423877954,
354.497345,0.3456088901,354.497345,0.3452577591,
353.9905701,0.3469648957,353.9905701,0.3461813927,
353.4837341,0.3475806713,353.4837341,0.3463921547,
353.0158997,0.3503062129,353.0158997,0.3499048352,
352.5090027,0.352327466,352.5090027,0.3501605093,
352.0020752,0.3528119028,352.0020752,0.3521725535,
351.4951172,0.355642885,351.4951172,0.353618592,
350.9881287,0.3571224511,350.9881287,0.3553213477,
350.4810791,0.3591002226,350.4810791,0.3579745293,
350.013031,0.3605702519,350.013031,0.3590761125,
349.5058899,0.3622491062,349.5058899,0.3606681526,
348.9987793,0.363910377,348.9987793,0.3611241281,
348.4916077,0.3643803,348.4916077,0.3639749289,
347.984436,0.3685877323,347.984436,0.3666076958,
347.5162048,0.3712381721,347.5162048,0.370192945,
347.0089417,0.3744398355,347.0089417,0.3732095957,
346.5015869,0.378736496,346.5015869,0.3769994676,
345.9942627,0.383908838,345.9942627,0.3812812865,
345.4868774,0.3882607222,345.4868774,0.3865219057,
345.0184937,0.3911942542,345.0184937,0.3902750015,
344.5110474,0.395519495,344.5110474,0.3940156698,
344.00354,0.3989826739,344.00354,0.3973409235,
343.4960327,0.4021233022,343.4960327,0.400588572,
342.9884949,0.4072167277,342.9884949,0.4056546092,
342.480896,0.4104817808,342.480896,0.408510685,
342.0123596,0.4149371982,342.0123596,0.4137849808,
341.5046997,0.4218869507,341.5046997,0.4194556773,
340.9969788,0.4271847904,340.9969788,0.4242528975,
340.4892578,0.4348804057,340.4892578,0.4311290681,
339.9815063,0.4411146641,339.9815063,0.4381982386,
339.5127563,0.449447155,339.5127563,0.4463905096,
339.0049438,0.4575957954,339.0049438,0.4549322128,
338.4970398,0.4666697383,338.4970398,0.4634004235,
337.9891663,0.4789122343,337.9891663,0.4748315215,
337.4812622,0.4878582656,337.4812622,0.4841557443,
337.0123596,0.4978316426,337.0123596,0.493383795,
336.504364,0.5124283433,336.504364,0.5083155632,
335.9963379,0.5255056024,335.9963379,0.5216069221,
335.4882507,0.541243732,335.4882507,0.5366767645,
335.0192566,0.5531538725,335.0192566,0.5488324165,
334.5111084,0.5721415877,334.5111084,0.5666177869,
334.0029602,0.5888941884,334.0029602,0.583430171,
333.494751,0.6057262421,333.494751,0.5998926759,
332.9865417,0.6258918643,332.9865417,0.6196624041,
332.5173645,0.639580369,332.5173645,0.6335144043,
332.0090942,0.66080755,332.0090942,0.653783083,
331.5007324,0.6843921542,331.5007324,0.6781076789,
330.9923706,0.7040604353,330.9923706,0.6971867085,
330.4839783,0.7282726169,330.4839783,0.7221086621,
330.0146484,0.7463316321,330.0146484,0.7386824489,
329.5061951,0.7679367661,329.5061951,0.7598767281,
328.9976501,0.7862256765,328.9976501,0.7784913778,
328.4891663,0.8028644919,328.4891663,0.7957539558,
327.9805908,0.8219885826,327.9805908,0.8142225742,
327.5111389,0.8326470256,327.5111389,0.8255956173,
327.0025024,0.8455658555,327.0025024,0.8377941847,
326.4938354,0.8547201753,326.4938354,0.8466143012,
325.9851379,0.8608433604,325.9851379,0.8534558415,
325.5155334,0.8698431253,325.5155334,0.8612607121,
325.0067749,0.8784815669,325.0067749,0.8706012964,
324.4979858,0.8881332874,324.4979858,0.8803789616,
323.9891663,0.8955777287,323.9891663,0.8875485063,
323.5194702,0.9045479298,323.5194702,0.8959669471,
323.0105591,0.918302834,323.0105591,0.9093924761,
322.5016479,0.9272853732,322.5016479,0.9186905026,
321.9927063,0.9377837181,321.9927063,0.928557694,
321.4837036,0.9448270202,321.4837036,0.9355792403,
321.013855,0.9483116865,321.013855,0.9390895367,
320.5047913,0.9503310919,320.5047913,0.9416317344,
319.995697,0.9502795935,319.995697,0.9412903786,
319.4865723,0.944011867,319.4865723,0.9352427721,
319.0166321,0.9352536798,319.0166321,0.9262614846,
318.5074158,0.927770257,318.5074158,0.9186193943,
317.99823,0.9211952686,317.99823,0.9131504893,
317.4889832,0.9207245708,317.4889832,0.9117910862,
317.0188904,0.9211316109,317.0188904,0.9130482674,
316.5095825,0.921844244,316.5095825,0.9128673077,
316.0002441,0.9232241511,316.0002441,0.9146088958,
315.4908447,0.924377203,315.4908447,0.9157334566,
314.9814758,0.9181285501,314.9814758,0.9103165865,
314.5112305,0.9042993784,314.5112305,0.89528054,
314.00177,0.8864408135,314.00177,0.8781293631,
313.4922791,0.8676187992,313.4922791,0.8594805598,
312.9827271,0.8445119858,312.9827271,0.8389333487,
312.5123901,0.833990097,312.5123901,0.8265472054,
312.0027771,0.82155931,312.0027771,0.8147562146,
311.4931641,0.8099970222,311.4931641,0.8032368422,
310.9835205,0.8038132787,310.9835205,0.7970855236,
310.5130615,0.7965849638,310.5130615,0.7914188504,
310.0033264,0.7885077596,310.0033264,0.7832270265,
309.4935913,0.7797384858,309.4935913,0.7730976939,
308.9838257,0.7673261762,308.9838257,0.7601647973,
308.5132446,0.7529948354,308.5132446,0.7474789023,
308.0033875,0.7281082273,308.0033875,0.722946465,
307.4935303,0.7110177875,307.4935303,0.7067179084,
306.9836121,0.6960309148,306.9836121,0.6910551786,
306.5129089,0.6814531088,306.5129089,0.6759570837,
306.0029602,0.6713311672,306.0029602,0.6661834121,
305.4929504,0.6604162455,305.4929504,0.6554213166,
304.9829407,0.6536762118,304.9829407,0.6473284364,
304.5121155,0.6444259286,304.5121155,0.6405223608,
304.0020447,0.6322928667,304.0020447,0.6275200248,
303.4919434,0.6222846508,303.4919434,0.6186964512,
302.9818115,0.6109210849,302.9818115,0.6063073874,
302.5108643,0.6031801105,302.5108643,0.598500073,
302.0006714,0.5909491777,302.0006714,0.586803019,
301.4904175,0.5802887678,301.4904175,0.5766304135,
301.0194092,0.574618876,301.0194092,0.5704881549,
300.5091248,0.567406714,300.5091248,0.5639888048,
299.9988098,0.5623717904,299.9988098,0.5596826077,
299.4884644,0.556376636,299.4884644,0.5538740754,
299.0173645,0.5492616296,299.0173645,0.5476793051,
298.5069275,0.5460647345,298.5069275,0.5433202982,
297.9964905,0.5419120789,297.9964905,0.5399464965,
297.4859924,0.5386180282,297.4859924,0.536729157,
297.0147705,0.5348858237,297.0147705,0.5319772363,
296.5042419,0.5283862948,296.5042419,0.52617383,
295.9936829,0.5259926915,295.9936829,0.5247285366,
295.4830933,0.526684463,295.4830933,0.5242114067,
295.0117493,0.525056839,295.0117493,0.5235306621,
294.5011292,0.5240316987,294.5011292,0.5219256282,
293.9904175,0.5211279988,293.9904175,0.5192642212,
293.5189819,0.5207238793,293.5189819,0.5183303952,
293.0082397,0.5191909671,293.0082397,0.5178204179,
292.4974976,0.5186910629,292.4974976,0.5170744658,
291.9866943,0.5177397132,291.9866943,0.516942203,
291.5151978,0.5191143155,291.5151978,0.5182544589,
291.0043335,0.5198509693,291.0043335,0.5184129477,
290.4934387,0.518687129,290.4934387,0.5187487006,
289.9825134,0.5194858313,289.9825134,0.5185892582,
289.5108948,0.521948576,289.5108948,0.5202023387,
288.9999084,0.522223115,288.9999084,0.5217962265,
288.4889221,0.524086535,288.4889221,0.5226374269,
288.0172119,0.5278397799,288.0172119,0.5264817476,
287.5061646,0.5300869942,287.5061646,0.5294883847,
286.9950867,0.5316916108,286.9950867,0.5309224725,
286.4839478,0.5347211361,286.4839478,0.534291029,
286.0121155,0.5362980366,286.0121155,0.5358505845,
285.500946,0.5404231548,285.500946,0.5395472646,
284.9897461,0.5441101789,284.9897461,0.5427128673,
284.5178528,0.5456673503,284.5178528,0.5455152392,
284.0065918,0.5495587587,284.0065918,0.5486851931,
283.4953308,0.5532417297,283.4953308,0.5524699688,
282.9840088,0.5593663454,282.9840088,0.5585510135,
282.5119934,0.5620373487,282.5119934,0.5612431765,
282.0006104,0.5656456947,282.0006104,0.5640027523,
281.4891968,0.5701932907,281.4891968,0.5692964196,
281.0171509,0.5734203458,281.0171509,0.5717667341,
280.5057068,0.5771955252,280.5057068,0.5765201449,
279.9942017,0.5820276737,279.9942017,0.5809246302,
279.4826965,0.5859729052,279.4826965,0.5851601362,
279.010498,0.5908186436,279.010498,0.5903321505,
278.4989624,0.596072793,278.4989624,0.5954805017,
277.9873657,0.6029103994,277.9873657,0.6021252871,
277.5151062,0.6069228649,277.5151062,0.6063812375,
277.003479,0.6119337082,277.003479,0.6106932163,
276.4917603,0.6185266376,276.4917603,0.6177322268,
276.0194397,0.6222288609,276.0194397,0.620839417,
275.5076904,0.6278222203,275.5076904,0.6263605356,
274.9959412,0.6336814761,274.9959412,0.6321373582,
274.4841614,0.6390707493,274.4841614,0.637839973,
274.0117188,0.6458728313,274.0117188,0.6446009874,
273.4999084,0.6503328681,273.4999084,0.6495979428,
272.9880066,0.6585782766,272.9880066,0.6572854519,
272.5155029,0.6676369309,272.5155029,0.6660968065,
272.00354,0.6741217375,272.00354,0.6730234027,
271.4916382,0.6781476736,271.4916382,0.6778551936,
271.019043,0.6821139455,271.019043,0.6812998652,
270.5070496,0.6892331243,270.5070496,0.6884844303,
269.9950256,0.6958116889,269.9950256,0.6950849891,
269.4829712,0.7028665543,269.4829712,0.7011574507,
269.0102539,0.7094082236,269.0102539,0.708673656,
268.4981384,0.7160284519,268.4981384,0.7156300545,
267.9860229,0.7263450027,267.9860229,0.7251527905,
267.5132751,0.735706985,267.5132751,0.7341409326,
267.0010681,0.7418640852,267.0010681,0.7406206727,
266.4888611,0.7516758442,266.4888611,0.7506912351,
266.0159912,0.7586861849,266.0159912,0.7575635314,
265.5037537,0.7691636682,265.5037537,0.767052114,
264.9914551,0.7809081078,264.9914551,0.778667748,
264.5185242,0.7883287668,264.5185242,0.7872958779,
264.0061951,0.8007265925,264.0061951,0.7992762327,
263.4938049,0.8113751411,263.4938049,0.810331881,
262.9814148,0.8247686028,262.9814148,0.8237976432,
262.5083923,0.8378798962,262.5083923,0.8366262317,
261.9959412,0.850780189,261.9959412,0.8492776752,
261.48349,0.8702700734,261.48349,0.8685058951,
261.010376,0.8833071589,261.010376,0.8809078336,
260.4978943,0.8986344337,260.4978943,0.896771431,
259.985321,0.9178760052,259.985321,0.9154127836,
259.512146,0.9343767762,259.512146,0.9317579269,
258.9995422,0.9594739079,258.9995422,0.9573794007,
258.486908,0.9837397337,258.486908,0.9822305441,
258.0137024,1.010625362,258.0137024,1.006960988,
257.5010071,1.042329788,257.5010071,1.039248466,
256.9883118,1.069396257,256.9883118,1.06506741,
256.5149841,1.108371496,256.5149841,1.103911877,
256.0022278,1.144858837,256.0022278,1.138469577,
255.4894562,1.185766697,255.4894562,1.181584597,
255.016098,1.236777782,255.016098,1.234298348,
254.5032501,1.281300545,254.5032501,1.276436925,
253.9904175,1.344734192,253.9904175,1.342334032,
253.5169525,1.409498692,253.5169525,1.402818084,
253.0040436,1.468698144,253.0040436,1.472475648,
252.4911041,1.542939663,252.4911041,1.545223117,
252.0176086,1.597517729,252.0176086,1.600045919,
251.5046082,1.703397512,251.5046082,1.709357977,
250.9915924,1.80640018,250.9915924,1.817965627,
250.5180054,1.907673001,250.5180054,1.910151243,
250.0049438,2.034701109,250.0049438,2.048279762,
249.4918671,2.130757809,249.4918671,2.147135019,
249.0182343,2.253543854,249.0182343,2.26432085,
248.5051117,2.392795801,248.5051117,2.411942244,
247.9919281,2.507350683,247.9919281,2.529014111,
247.518219,2.60514617,247.518219,2.622057438,
247.0049896,2.686787605,247.0049896,2.702023745,
246.4917603,2.789456606,246.4917603,2.799509764,
246.0179901,2.879100323,246.0179901,2.892687082,
245.504715,2.942175388,245.504715,2.953574181,
244.9914093,2.950526476,244.9914093,2.963858843,
244.5175323,2.985100746,244.5175323,2.993498564,
244.0041809,3.01086092,244.0041809,3.004190445,
243.4908142,3.017498493,243.4908142,3.009277821,
243.0169067,3.022540569,243.0169067,3.017786026,
242.5034943,3.007803679,242.5034943,3.017806053,
241.9900208,3.023247004,241.9900208,3.028392315,
241.5160522,3.019897938,241.5160522,3.024201393,
241.002533,3.010050058,241.002533,3.017226458,
240.4889984,3.001661539,240.4889984,2.995844841,
240.0149689,3.010057688,240.0149689,3.017910957,
239.5013885,3.021640539,239.5013885,3.024125814,
238.9878082,3.009092808,238.9878082,3.025362015,
238.5136566,3.017037153,238.5136566,3.024766445,
238.0000153,3.001734972,238.0000153,3.015875816,
237.4863586,3.027665377,237.4863586,3.018006802,
237.0121918,3.050867558,237.0121918,3.052727461,
236.4984741,3.033275843,236.4984741,3.042123556,
235.9847412,3.062812567,235.9847412,3.066583633,
235.5104828,3.062706232,235.5104828,3.057841063,
234.9966888,3.057864189,234.9966888,3.056929111,
234.4828796,3.066558123,234.4828796,3.045872211,
234.0085907,3.040277004,234.0085907,3.025732517,
233.4947357,3.048588753,233.4947357,3.049530029,
232.9808807,3.061461926,232.9808807,3.044738054,
232.5064697,3.055146217,232.5064697,3.045984507,
231.9925537,3.055767059,231.9925537,3.070287704,
231.518158,3.067864418,231.518158,3.07848382,
231.0041809,3.05167079,231.0041809,3.059119225,
230.4901733,3.054477692,230.4901733,3.059867382,
230.015686,3.082087755,230.015686,3.06751442,
229.5016327,3.058040142,229.5016327,3.060861588,
228.9875793,3.071527719,228.9875793,3.057389259,
228.5130615,3.072977066,228.5130615,3.039257526,
227.9989471,3.03406167,227.9989471,3.018898964,
227.4848328,3.024057627,227.4848328,2.960897207,
227.0102081,2.99296999,227.0102081,3.047479153,
226.496048,3.011612654,226.496048,3.060711861,
225.9818573,3.083279133,225.9818573,3.078845739,
225.5071716,3.072793722,225.5071716,3.079678059,
224.9929352,3.07371068,224.9929352,3.081567049,
224.5182343,3.0744524,224.5182343,3.075472593,
224.0039368,3.0744946,224.0039368,3.071471214,
223.4896088,3.088549137,223.4896088,3.068328381,
223.0148773,3.071698189,223.0148773,3.065384626,
222.5005035,3.061718464,222.5005035,3.059318781,
221.9861298,3.053397894,221.9861298,3.059539557,
221.5112915,3.074709892,221.5112915,3.047987223,
220.9968719,3.093815088,220.9968719,3.082689047,
220.4824524,3.083838224,220.4824524,3.074389935,
220.0075684,3.075405836,220.0075684,3.072107077,
219.4930725,3.085766792,219.4930725,3.066493034,
219.0181274,3.05920434,219.0181274,3.057741404,
218.5036163,3.082632303,218.5036163,3.084382534,
217.9890747,3.068989992,217.9890747,3.080327272,
217.5140686,3.057606697,217.5140686,3.069261551,
216.9994812,3.077414751,216.9994812,3.070557594,
216.4848633,3.081887484,216.4848633,3.054563046,
216.0098267,3.073380947,216.0098267,3.07322216,
215.4951477,3.078686476,215.4951477,3.065851212,
214.980484,3.083540201,214.980484,3.073193312,
214.5053864,3.088836432,214.5053864,3.099683046,
213.9906769,3.06297636,213.9906769,3.072551727,
213.5154877,3.090204239,213.5154877,3.082218885,
213.0007324,3.094450712,213.0007324,3.07496953,
212.4859772,3.088843107,212.4859772,3.089890003,
212.0107727,3.093489647,212.0107727,3.087558508,
211.4959106,3.086818218,211.4959106,3.081607342,
210.9810791,3.070814371,210.9810791,3.087647438,
210.5058289,3.104669333,210.5058289,3.093764782,
209.990921,3.100662947,209.990921,3.082922697,
209.515625,3.093093395,209.515625,3.087009668,
209.0007172,3.100281715,209.0007172,3.073582649,
208.4857483,3.093577147,208.4857483,3.09026432,
208.0103912,3.102107048,208.0103912,3.091132402,
207.4953918,3.107786894,207.4953918,3.107826948,
206.9803925,3.126072168,206.9803925,3.109718561,
206.5049744,3.128995895,206.5049744,3.147227049,
205.9899292,3.143646479,205.9899292,3.129162788,
205.5144806,3.142529011,205.5144806,3.138913155,
204.9993744,3.167230606,204.9993744,3.162146568,
204.4842529,3.122688055,204.4842529,3.16179657,
204.008728,3.136449099,204.008728,3.155331612,
203.4935913,3.15798378,203.4935913,3.184334993,
203.0180511,3.199207306,203.0180511,3.203290939,
202.5028381,3.187088728,202.5028381,3.195473671,
201.9876251,3.187829256,201.9876251,3.192554951,
201.5120239,3.215023518,201.5120239,3.230152607,
200.9967651,3.227612495,200.9967651,3.227711916,
200.4814911,3.214665651,200.4814911,3.191006899,
200.0058289,3.237549305,200.0058289,3.293161869,
199.4905243,3.273114681,199.4905243,3.270421505,
199.0148163,3.224672556,199.0148163,3.261873722,
198.4994659,3.264085293,198.4994659,3.297838688,
197.9841003,3.265172958,197.9841003,3.3114779,
197.5083466,3.248502016,197.5083466,3.272264004,
196.9929352,3.26115942,196.9929352,3.294234991,
196.5171356,3.277000427,196.5171356,3.324231625,
196.0016937,3.20606637,196.0016937,3.264823914,
195.4862213,3.265501976,195.4862213,3.253460646,
195.0103912,3.228517056,195.0103912,3.252555132,
194.494873,3.207800627,194.494873,3.231776476,
194.0189972,3.185321093,194.0189972,3.25446701,
193.5034637,3.190339804,193.5034637,3.215652227,
192.9878845,3.163551569,192.9878845,3.186426878,
192.5119629,3.137981176,192.5119629,3.164467573,
191.9963531,3.099666595,191.9963531,3.106972694,
191.4807281,3.059776068,191.4807281,3.085578203,
191.0047455,3.075365543,191.0047455,3.102304459,
190.48909,3.103343248,190.48909,3.080802202,
190.0130615,3.097922802,190.0130615,3.09999752,

s1,
s1
Collection Time: 10/19/2023 1:36:03 PM
Operator Name  :
Scan Version 5.1.3.1042
Parameter List :
Instrument  Cary 60
Instrument Version  2.00
Start (nm)  500.0
Stop (nm)  190.0
X Mode  Nanometers
Y Mode  Abs
UV-Vis Scan Rate (nm/min)  300.00
UV-Vis Data Interval (nm)  0.50
UV-Vis Ave. Time (sec)  0.1000
Beam Mode  Dual Beam
Baseline Correction  Off
Cycle Mode  Off
Method Log     :
Method Name    :
Date/Time stamp: 10/19/2023 1:28:53 PM
Method Modifications:
UVVIS SAT Changed: 10/19/2023 1:32:42 PM, Old:0.0125, New:0.1000
Common SAT Changed: 10/19/2023 1:32:42 PM, Old:0.0125, New:0.1000
X Start nm Changed: 10/19/2023 1:32:45 PM, Old:  800.0, New:  500.0
X Stop nm Changed: 10/19/2023 1:32:45 PM, Old:  200.0, New:  190.0
Y Max Abs Changed: 10/19/2023 1:32:45 PM, Old:     1.00, New:     2.00
Common Interval nm Changed: 10/19/2023 1:32:45 PM, Old:     5.00, New:     1.00
Common Interval nm Changed: 10/19/2023 1:34:08 PM, Old:     1.00, New:     0.50
End Method Modifications
<Current Wavelength> , 191.0

s2,
s2
Collection Time: 10/19/2023 1:37:32 PM
Operator Name  :
Scan Version 5.1.3.1042
Parameter List :
Instrument  Cary 60
Instrument Version  2.00
Start (nm)  500.0
Stop (nm)  190.0
X Mode  Nanometers
Y Mode  Abs
UV-Vis Scan Rate (nm/min)  300.00
UV-Vis Data Interval (nm)  0.50
UV-Vis Ave. Time (sec)  0.1000
Beam Mode  Dual Beam
Baseline Correction  Off
Cycle Mode  Off
Method Log     :
Method Name    :
Date/Time stamp: 10/19/2023 1:28:53 PM
Method Modifications:
UVVIS SAT Changed: 10/19/2023 1:32:42 PM, Old:0.0125, New:0.1000
Common SAT Changed: 10/19/2023 1:32:42 PM, Old:0.0125, New:0.1000
X Start nm Changed: 10/19/2023 1:32:45 PM, Old:  800.0, New:  500.0
X Stop nm Changed: 10/19/2023 1:32:45 PM, Old:  200.0, New:  190.0
Y Max Abs Changed: 10/19/2023 1:32:45 PM, Old:     1.00, New:     2.00
Common Interval nm Changed: 10/19/2023 1:32:45 PM, Old:     5.00, New:     1.00
Common Interval nm Changed: 10/19/2023 1:34:08 PM, Old:     1.00, New:     0.50
End Method Modifications
<Current Wavelength> , 190.0
