1mm full,,1mm full2,,discard,,1mm vapor,,
Wavelength (nm),Abs,Wavelength (nm),Abs,Wavelength (nm),Abs,Wavelength (nm),Abs,
499.9981689,0.04140864685,499.9981689,0.04155572131,499.9981689,0.04144763201,499.9981689,0.1048548743,
499.5040283,0.04145472124,499.5040283,0.04150445014,499.5040283,0.04135676846,499.5040283,0.1048909873,
499.0098877,0.04138985276,499.0098877,0.04142035171,499.0098877,0.04126469791,499.0098877,0.1048155576,
498.515625,0.04136425629,498.515625,0.04125743732,498.515625,0.04123028368,498.515625,0.1047339439,
497.9832764,0.04123654589,497.9832764,0.04113479704,497.9832764,0.04110039398,497.9832764,0.1045909151,
497.4889221,0.04110050574,497.4889221,0.04111780971,497.4889221,0.0409951508,497.4889221,0.1045027226,
496.9945679,0.04123011231,496.9945679,0.04114210978,496.9945679,0.04106727242,496.9945679,0.1045519263,
496.5000916,0.04123241827,496.5000916,0.04110798985,496.5000916,0.04093743116,496.5000916,0.104552947,
496.0056458,0.0409976542,496.0056458,0.04095700383,496.0056458,0.04082346708,496.0056458,0.1044536009,
495.5110779,0.04080279544,495.5110779,0.04081127048,495.5110779,0.04067524895,495.5110779,0.1043856815,
495.0164185,0.04060896114,495.0164185,0.0404981263,495.0164185,0.04050273076,495.0164185,0.1043549404,
494.4837952,0.0405334495,494.4837952,0.04037285969,494.4837952,0.04027384147,494.4837952,0.1040119454,
493.9891052,0.04019537568,493.9891052,0.0401846692,493.9891052,0.04001836106,493.9891052,0.1042161137,
493.4943542,0.03989232332,493.4943542,0.03983872384,493.4943542,0.03970740363,493.4943542,0.1038925722,
492.9995117,0.03980317339,492.9995117,0.03978450596,492.9995117,0.03961656243,492.9995117,0.1038966477,
492.5046997,0.03988840804,492.5046997,0.03974445164,492.5046997,0.03972955793,492.5046997,0.1038062647,
492.0097656,0.04000067711,492.0097656,0.0399406217,492.0097656,0.03985415772,492.0097656,0.1037487686,
491.5148621,0.04024291039,491.5148621,0.04005917907,491.5148621,0.03994482011,491.5148621,0.103538774,
490.9817505,0.03978910297,490.9817505,0.03979216516,490.9817505,0.03965983912,490.9817505,0.1034437343,
490.4866638,0.0393926762,490.4866638,0.03936934844,490.4866638,0.0394487977,490.4866638,0.1030199677,
489.9915466,0.03925216943,489.9915466,0.03918292373,489.9915466,0.0391186215,489.9915466,0.1034150571,
489.4964294,0.03919941559,489.4964294,0.03901807591,489.4964294,0.03895781562,489.4964294,0.10313458,
489.0012207,0.03903654218,489.0012207,0.0389334932,489.0012207,0.03886039555,489.0012207,0.1029652059,
488.5058899,0.03900032118,488.5058899,0.03891231492,488.5058899,0.03893488273,488.5058899,0.1028335541,
488.0106506,0.03902756423,488.0106506,0.0390316695,488.0106506,0.03893488273,488.0106506,0.1028753445,
487.5152893,0.03913337737,487.5152893,0.03915111348,487.5152893,0.03911202028,487.5152893,0.1027231216,
486.98172,0.03916442767,486.98172,0.03907205537,486.98172,0.0391141437,486.98172,0.1030212492,
486.4863586,0.03909346834,486.4863586,0.03893074766,486.4863586,0.03886316717,486.4863586,0.1027433872,
485.9907837,0.03866935149,485.9907837,0.03863734752,485.9907837,0.0386242494,485.9907837,0.1027536541,
485.4952393,0.03863955662,485.4952393,0.038418971,485.4952393,0.03835754842,485.4952393,0.1027442738,
484.9996338,0.03852989897,484.9996338,0.03833611682,484.9996338,0.03831185773,484.9996338,0.1027858928,
484.5039978,0.03885108232,484.5039978,0.03861287236,484.5039978,0.03853040934,484.5039978,0.1027865484,
484.0082397,0.03914096951,484.0082397,0.03897574171,484.0082397,0.03903619945,484.0082397,0.1028676033,
483.5125122,0.03935804218,483.5125122,0.03921955824,483.5125122,0.03924607858,483.5125122,0.1028034389,
483.0166931,0.03939800337,483.0166931,0.03931541741,483.0166931,0.03932000697,483.0166931,0.103196159,
482.4826965,0.0393463634,482.4826965,0.03926687688,482.4826965,0.03915108368,482.4826965,0.1031111106,
481.9868469,0.03930184245,481.9868469,0.03909471631,481.9868469,0.03904900327,481.9868469,0.1028456241,
481.4908752,0.03920873627,481.4908752,0.0391543135,481.4908752,0.03918799758,481.4908752,0.1029568389,
480.994812,0.03957036883,480.994812,0.03933202475,480.994812,0.03928600252,480.994812,0.1031634957,
480.4988403,0.03952786699,480.4988403,0.03928155452,480.4988403,0.03934083879,480.4988403,0.1035419255,
480.0026855,0.03957810998,480.0026855,0.03952281922,480.0026855,0.03942456469,480.0026855,0.103551425,
479.5065308,0.03974056244,479.5065308,0.03965856507,479.5065308,0.03948584944,479.5065308,0.103957057,
479.0103149,0.03983205557,479.0103149,0.03968522325,479.0103149,0.03977684677,479.0103149,0.1039142683,
478.5141296,0.04000777379,478.5141296,0.03997924924,478.5141296,0.03993781283,478.5141296,0.1040674672,
478.0177612,0.0401936695,478.0177612,0.04015604779,478.0177612,0.04015615955,478.0177612,0.1043835431,
477.4831848,0.04048303887,477.4831848,0.04035266116,477.4831848,0.04030610621,477.4831848,0.1048624143,
476.986908,0.04074800387,476.986908,0.04056087136,476.986908,0.04062033072,476.986908,0.1048703268,
476.490387,0.04088424519,476.490387,0.04078664258,476.490387,0.04084155336,476.490387,0.1049993336,
475.9939575,0.04114868492,475.9939575,0.04108255357,475.9939575,0.04095973447,475.9939575,0.1053157896,
475.497345,0.04131773487,475.497345,0.04122439027,475.497345,0.04134774208,475.497345,0.105554834,
475.0007629,0.0415828377,475.0007629,0.04152700678,475.0007629,0.04137880355,475.0007629,0.1059127599,
474.5041199,0.04199284688,474.5041199,0.04175912216,474.5041199,0.04171845689,474.5041199,0.1064037383,
474.0074768,0.04210221022,474.0074768,0.04207788408,474.0074768,0.041969724,474.0074768,0.1064084321,
473.5106812,0.04235635325,473.5106812,0.04225545377,473.5106812,0.0421669893,473.5106812,0.1067919508,
473.0139465,0.04270311072,473.0139465,0.04255245253,473.0139465,0.0425530225,473.0139465,0.1071163788,
472.5170593,0.04283308238,472.5170593,0.04275343567,472.5170593,0.04278380051,472.5170593,0.1072263718,
471.9819641,0.0431377925,471.9819641,0.04309142381,471.9819641,0.04292165488,471.9819641,0.1074598357,
471.4850769,0.04330552742,471.4850769,0.04337980971,471.4850769,0.04334385321,471.4850769,0.1078285947,
470.9880981,0.04365565255,470.9880981,0.04350548983,470.9880981,0.04353118688,470.9880981,0.1080251336,
470.4910278,0.04387146607,470.4910278,0.04382845759,470.4910278,0.0437463671,470.4910278,0.1081692949,
469.993988,0.0441782847,469.993988,0.044119481,469.993988,0.04407341033,469.993988,0.1085159183,
469.4967957,0.04454399645,469.4967957,0.04432827607,469.4967957,0.04428252578,469.4967957,0.1088938192,
468.9996338,0.04461094365,468.9996338,0.04452569783,468.9996338,0.04443585128,468.9996338,0.1092053354,
468.5024414,0.0447640717,468.5024414,0.044691246,468.5024414,0.04460116476,468.5024414,0.1093267202,
468.005127,0.0452003628,468.005127,0.04497254267,468.005127,0.04499487951,468.005127,0.1096720323,
467.5078125,0.04520579055,467.5078125,0.04520418122,467.5078125,0.0452009365,467.5078125,0.1099378318,
467.010498,0.04561880603,467.010498,0.04551726207,467.010498,0.04554120824,467.010498,0.1102795973,
466.5130615,0.04593807831,466.5130615,0.04568796232,466.5130615,0.04576604441,466.5130615,0.1105403155,
466.0155945,0.04588954151,466.0155945,0.04586643726,466.0155945,0.04590430111,466.0155945,0.1107548624,
465.5180969,0.04626902193,465.5180969,0.04611415416,465.5180969,0.04608600587,465.5180969,0.1106473431,
464.9822693,0.04652014002,464.9822693,0.04635389149,464.9822693,0.04632903636,464.9822693,0.111106433,
464.4846497,0.04655019194,464.4846497,0.04658652842,464.4846497,0.04662436619,464.4846497,0.1113445386,
463.98703,0.04682381451,463.98703,0.04678699747,463.98703,0.0467659831,463.98703,0.1114157587,
463.4893188,0.04689342529,463.4893188,0.04688765854,463.4893188,0.04690619931,463.4893188,0.111583747,
462.9915161,0.04709077626,462.9915161,0.0470052436,462.9915161,0.04715517536,462.9915161,0.1117224321,
462.4938049,0.04713480547,462.4938049,0.04725075141,462.4938049,0.0472352244,462.4938049,0.1121055111,
461.9959106,0.04743322358,461.9959106,0.04734840244,461.9959106,0.04732909054,461.9959106,0.1123170108,
461.4980469,0.04745490849,461.4980469,0.04743397236,461.4980469,0.04744942114,461.4980469,0.1125549749,
461.0000916,0.04776206985,461.0000916,0.04780290276,461.0000916,0.04787555709,461.0000916,0.1125968769,
460.5021362,0.04799060524,460.5021362,0.04810759425,460.5021362,0.04809565097,460.5021362,0.1129569858,
460.0040894,0.04830286279,460.0040894,0.04840245843,460.0040894,0.04852783307,460.0040894,0.113143608,
459.5060425,0.04865301773,459.5060425,0.0487456806,459.5060425,0.04876491055,459.5060425,0.1131284609,
459.007843,0.04855232313,459.007843,0.04867035896,459.007843,0.04875607789,459.007843,0.1132332981,
458.5097656,0.04862996936,458.5097656,0.04883427918,458.5097656,0.04879213497,458.5097656,0.113362737,
458.0115051,0.04882561788,458.0115051,0.04887605086,458.0115051,0.04898835346,458.0115051,0.1135627404,
457.5132141,0.04879057035,457.5132141,0.04901672155,457.5132141,0.04906080291,457.5132141,0.1136935502,
457.0149231,0.04890986159,457.0149231,0.04912412912,457.0149231,0.04917967319,457.0149231,0.1139375865,
456.516571,0.04909175634,456.516571,0.04928816482,456.516571,0.04932925478,456.516571,0.1140427962,
456.018158,0.04926757887,456.018158,0.0494478792,456.018158,0.04945493117,456.018158,0.1140824854,
455.4813843,0.04939224571,455.4813843,0.04961653426,455.4813843,0.04955606163,455.4813843,0.1145986021,
454.9829102,0.04960101098,454.9829102,0.04964491725,454.9829102,0.04974159598,454.9829102,0.1146517172,
454.4842834,0.0495871976,454.4842834,0.04984761402,454.4842834,0.04970856383,454.4842834,0.1147211269,
453.9857483,0.04955565557,453.9857483,0.04997024313,453.9857483,0.04988582805,453.9857483,0.1147513315,
453.4870605,0.04980877042,453.4870605,0.04993022606,453.4870605,0.04999260977,453.4870605,0.1152091101,
452.9883728,0.05001279339,452.9883728,0.05008669198,452.9883728,0.05013750494,452.9883728,0.1150014624,
452.4897156,0.05002528429,452.4897156,0.05037644878,452.4897156,0.05026390776,452.4897156,0.1153654754,
451.9909363,0.05019837618,451.9909363,0.05045299605,451.9909363,0.05046846345,451.9909363,0.1156073436,
451.4920654,0.05025309697,451.4920654,0.05051632598,451.4920654,0.05059926957,451.4920654,0.1154155806,
450.9932251,0.05048774183,450.9932251,0.05067760125,450.9932251,0.05064414814,450.9932251,0.1155785993,
450.4942627,0.05047352239,450.4942627,0.05059586465,450.4942627,0.05072638765,450.4942627,0.1159859896,
449.9953308,0.05059787259,449.9953308,0.05064694211,449.9953308,0.05077468231,449.9953308,0.1159570515,
449.4963074,0.05064167455,449.4963074,0.0508175455,449.4963074,0.05101430044,449.4963074,0.1159721315,
448.9972839,0.05094443634,448.9972839,0.05105957389,448.9972839,0.05110234395,448.9972839,0.1163548827,
448.4981689,0.05110796541,448.4981689,0.05120540783,448.4981689,0.05127735436,448.4981689,0.1164469346,
447.999054,0.05112773553,447.999054,0.05137532949,447.999054,0.05138704181,447.999054,0.1166247651,
447.4998474,0.05131251365,447.4998474,0.05148749053,447.4998474,0.05153572559,447.4998474,0.1167030558,
447.0005798,0.05142002553,447.0005798,0.05158688128,447.0005798,0.05173222348,447.0005798,0.1170271114,
446.5013428,0.05154106021,446.5013428,0.05187802389,446.5013428,0.05180551112,446.5013428,0.1169117913,
446.0020142,0.05155275017,446.0020142,0.05165766552,446.0020142,0.05184683949,446.0020142,0.1171632409,
445.5026245,0.05159242079,445.5026245,0.05175225809,445.5026245,0.05184132606,445.5026245,0.1169678345,
445.0032043,0.05163437128,445.0032043,0.05178553239,445.0032043,0.05194914714,445.0032043,0.1170216873,
444.5037537,0.051854074,444.5037537,0.05196274072,444.5037537,0.05201987177,444.5037537,0.1172305048,
444.0042419,0.05184144527,444.0042419,0.05202185735,444.0042419,0.05211635306,444.0042419,0.1174975112,
443.5046997,0.05184742436,443.5046997,0.05198829994,443.5046997,0.05210558325,443.5046997,0.1174823791,
443.0050964,0.05198835954,443.0050964,0.05220614001,443.0050964,0.05232768506,443.0050964,0.1176155955,
442.5054321,0.05221314356,442.5054321,0.05230330303,442.5054321,0.05241669714,442.5054321,0.1178989261,
442.0057373,0.05227603018,442.0057373,0.0523868762,442.0057373,0.05255495384,442.0057373,0.1178322062,
441.5060425,0.05240682513,441.5060425,0.05256713554,441.5060425,0.05264345556,441.5060425,0.1181197912,
441.0062561,0.05231836811,441.0062561,0.05256681517,441.0062561,0.05278728157,441.0062561,0.1179861128,
440.5064697,0.05244108289,440.5064697,0.05263743922,440.5064697,0.05283080786,440.5064697,0.1179808155,
440.0065613,0.05257540569,440.0065613,0.05278614163,440.0065613,0.05291735381,440.0065613,0.118248038,
439.5066223,0.052673731,439.5066223,0.05292823166,439.5066223,0.05298089609,439.5066223,0.1181967929,
439.0066833,0.05273428932,439.0066833,0.05282505229,439.0066833,0.05294200405,439.0066833,0.1182845458,
438.5066833,0.05277874693,438.5066833,0.05296267569,438.5066833,0.05311787128,438.5066833,0.1182990223,
438.0066528,0.05275071412,438.0066528,0.05295624211,438.0066528,0.05316499993,438.0066528,0.118164137,
437.5065613,0.05278900638,437.5065613,0.05289097875,437.5065613,0.05311506242,437.5065613,0.1185351908,
437.0064392,0.05283659697,437.0064392,0.05295653641,437.0064392,0.05316441506,437.0064392,0.1183994785,
436.5061951,0.05281633884,436.5061951,0.05299107358,436.5061951,0.05299782753,436.5061951,0.1183829531,
436.006012,0.05278014764,436.006012,0.05293501541,436.006012,0.05315168947,436.006012,0.1184892803,
435.5057373,0.05292439833,435.5057373,0.05304015055,435.5057373,0.05316918343,435.5057373,0.1185737252,
435.0054016,0.05290337652,435.0054016,0.05312521383,435.0054016,0.05325359851,435.0054016,0.1184976771,
434.5050964,0.05292670801,434.5050964,0.05308677629,434.5050964,0.05319440365,434.5050964,0.1185642332,
434.0046997,0.05310339108,434.0046997,0.05325216427,434.0046997,0.05332234502,434.0046997,0.1186310053,
433.5042419,0.05318908021,433.5042419,0.05330762267,433.5042419,0.05332070589,433.5042419,0.1185537949,
433.0036926,0.05312445387,433.0036926,0.05325178429,433.0036926,0.0534160696,433.0036926,0.1186960489,
432.5031738,0.0532043837,432.5031738,0.05326018482,432.5031738,0.05350685492,432.5031738,0.1186901629,
432.0026245,0.05321643874,432.0026245,0.05334230512,432.0026245,0.05355909467,432.0026245,0.1186775044,
431.5019836,0.05309592932,431.5019836,0.05338436738,431.5019836,0.05339642614,431.5019836,0.1185999438,
431.0012817,0.05334687233,431.0012817,0.05333270505,431.0012817,0.05346961319,431.0012817,0.1187538877,
430.5006104,0.05330323428,430.5006104,0.05331423506,430.5006104,0.05339024961,430.5006104,0.1186734959,
429.9998779,0.05337101966,429.9998779,0.05341495574,429.9998779,0.05350922793,429.9998779,0.1191291288,
429.4990845,0.0532890372,429.4990845,0.05344036594,429.4990845,0.05352044106,429.4990845,0.1188012213,
428.99823,0.05334385484,428.99823,0.05335983634,428.99823,0.05359236151,428.99823,0.1188562512,
428.497345,0.05327472836,428.497345,0.05343386903,428.497345,0.05349769071,428.497345,0.1186708733,
427.9963989,0.05326193944,427.9963989,0.05332009122,427.9963989,0.05367387086,427.9963989,0.1186732575,
427.4953918,0.0532627888,427.4953918,0.05330560356,427.4953918,0.05347983167,427.4953918,0.1186505631,
426.9943848,0.05366493762,426.9943848,0.05352518708,426.9943848,0.05370773375,426.9943848,0.1190467551,
426.4933167,0.05370688438,426.4933167,0.05369516835,426.4933167,0.05389663205,426.4933167,0.1189688221,
425.992218,0.05373954773,425.992218,0.0535979867,425.992218,0.05385994166,425.992218,0.118940331,
425.4911194,0.05364159495,425.4911194,0.0537118651,425.4911194,0.053834185,425.4911194,0.119049646,
424.9898987,0.0537512973,424.9898987,0.05380634964,424.9898987,0.05404612049,424.9898987,0.1192204058,
424.4886475,0.0539117828,424.4886475,0.0539175272,424.4886475,0.05389601737,424.4886475,0.1192315146,
423.9873657,0.05384467542,423.9873657,0.05394246802,423.9873657,0.05405353755,423.9873657,0.1191373691,
423.4860535,0.05386120081,423.4860535,0.05406913161,423.4860535,0.05397596955,423.4860535,0.1192433313,
422.9847107,0.0539689064,422.9847107,0.0538616702,422.9847107,0.05405670404,422.9847107,0.1192516088,
422.4833374,0.05379829183,422.4833374,0.05379943177,422.4833374,0.05399904028,422.4833374,0.1191351563,
421.9818726,0.05379990116,421.9818726,0.05386501178,421.9818726,0.05393353105,421.9818726,0.1190159023,
421.5189819,0.05383398011,421.5189819,0.05389877036,421.5189819,0.05407353118,421.5189819,0.1190941185,
421.017395,0.05400897563,421.017395,0.05407218263,421.017395,0.05424123257,421.017395,0.1192222834,
420.5158081,0.05405506119,420.5158081,0.05406848714,420.5158081,0.05422923714,420.5158081,0.1191936359,
420.0142212,0.05393417552,420.0142212,0.05394718796,420.0142212,0.05408698693,420.0142212,0.1188287213,
419.5125732,0.05403908342,419.5125732,0.05389244109,419.5125732,0.05404676497,419.5125732,0.1188234463,
419.0108643,0.05401946977,419.0108643,0.05393798277,419.0108643,0.05406637862,419.0108643,0.1186962202,
418.5091248,0.05398763716,418.5091248,0.05399326608,418.5091248,0.05429678783,418.5091248,0.1187966317,
418.0073242,0.05401557311,418.0073242,0.05394786224,418.0073242,0.05419873819,418.0073242,0.1187075824,
417.5054932,0.05402451381,417.5054932,0.05399391055,417.5054932,0.05416290089,417.5054932,0.1186992154,
417.0036316,0.05400437489,417.0036316,0.05412173271,417.0036316,0.05520451814,417.0036316,0.1190821305,
416.5016785,0.05391131341,416.5016785,0.05399478972,416.5016785,0.05792908743,416.5016785,0.1187616512,
415.9997559,0.05402043834,415.9997559,0.054162696,415.9997559,0.08072005212,415.9997559,0.1186611131,
415.4977417,0.05395510048,415.4977417,0.05402477831,415.4977417,0.004931969568,415.4977417,0.1186451912,
414.995697,0.05396415666,414.995697,0.05401214212,414.995697,0.004829009529,414.995697,0.1186670959,
414.4936218,0.05398429558,414.4936218,0.05403125659,414.4936218,0.00474276999,414.4936218,0.1184314713,
413.9914551,0.05417149514,413.9914551,0.05405711383,413.9914551,0.004595535342,413.9914551,0.1184582338,
413.4892883,0.05424709991,413.4892883,0.05400648341,413.4892883,0.004404599313,413.4892883,0.1185750142,
412.9871216,0.05414281413,412.9871216,0.05405353755,412.9871216,0.004269974772,412.9871216,0.1184533387,
412.4848633,0.05410856754,412.4848633,0.05399478972,412.4848633,0.004059924278,412.4848633,0.1183182299,
411.9825745,0.05403040722,411.9825745,0.05393854156,411.9825745,0.003943718038,411.9825745,0.118313469,
411.5188599,0.05399405584,411.5188599,0.05396151915,411.5188599,0.003729125485,411.5188599,0.118299976,
411.01651,0.05414779857,411.01651,0.05404040217,411.01651,0.003723381553,411.01651,0.1181807145,
410.5140991,0.05433718115,410.5140991,0.05441434309,410.5140991,0.003827150445,410.5140991,0.1179655641,
410.0116272,0.05441797897,410.0116272,0.05442229286,410.0116272,0.003565921448,410.0116272,0.1178715602,
409.5090637,0.05448705703,409.5090637,0.05441986024,409.5090637,0.003456161357,409.5090637,0.118101649,
409.0065613,0.05457959324,409.0065613,0.05442355573,409.0065613,0.003123944625,409.0065613,0.1179257259,
408.5039368,0.0545264706,408.5039368,0.05454014614,408.5039368,0.003022063756,408.5039368,0.1177924424,
408.0013428,0.0545812957,408.0013428,0.05446419492,408.0013428,0.002860975219,408.0013428,0.1178132594,
407.4986877,0.05468216538,407.4986877,0.05462544411,407.4986877,0.00265345443,407.4986877,0.1177675277,
406.9959717,0.05489762872,406.9959717,0.05456215888,406.9959717,0.002527390607,406.9959717,0.1178722754,
406.4932251,0.05488740653,406.4932251,0.05481033772,406.4932251,0.002211832209,406.4932251,0.1174914017,
405.990448,0.05506062508,405.990448,0.05484969169,405.990448,0.002123561455,405.990448,0.1178159714,
405.4875793,0.05505600944,405.4875793,0.05503382534,405.4875793,0.001993802842,405.4875793,0.117551662,
404.9846802,0.05536036566,404.9846802,0.05540738627,404.9846802,0.002029405208,404.9846802,0.1174038425,
404.481781,0.05585974827,404.481781,0.05571722612,404.481781,0.002023163484,404.481781,0.1173201352,
404.0175476,0.05597269163,404.0175476,0.05575787276,404.0175476,0.001868606429,404.0175476,0.1171945333,
403.5145569,0.05612183362,403.5145569,0.05597386882,403.5145569,0.001670160214,403.5145569,0.1172903255,
403.0114746,0.05651266873,403.0114746,0.05625650287,403.0114746,0.001632612431,403.0114746,0.1174185649,
402.5084229,0.05676290765,402.5084229,0.05665288493,402.5084229,0.001495415461,402.5084229,0.1173713133,
402.0053101,0.05714029074,402.0053101,0.05684371665,402.0053101,0.001312925713,402.0053101,0.1171796843,
401.5021362,0.05733349174,401.5021362,0.05713937432,401.5021362,0.001117535983,401.5021362,0.117101714,
400.9989319,0.05761358514,400.9989319,0.05748514459,400.9989319,0.0009178242763,400.9989319,0.1174027249,
400.4956665,0.05827412009,400.4956665,0.05814797059,400.4956665,0.0007770407829,400.4956665,0.1170814112,
399.9924316,0.05860684067,399.9924316,0.05865904316,399.9924316,0.000755387824,399.9924316,0.117294088,
399.4890747,0.05896297097,399.4890747,0.05892107636,399.4890747,0.0007629857282,399.4890747,0.1171598509,
398.9857178,0.05978978425,398.9857178,0.05955471843,398.9857178,0.0005946452147,398.9857178,0.1172295883,
398.4822998,0.06021869183,398.4822998,0.0600891225,398.4822998,0.0005234189448,398.4822998,0.1171730384,
398.0175781,0.06076364964,398.0175781,0.06064638868,398.0175781,0.000446710852,398.0175781,0.1171732396,
397.5140991,0.06146743521,397.5140991,0.06129158288,397.5140991,0.0004095796612,397.5140991,0.1172211841,
397.0105896,0.06201491877,397.0105896,0.0619953312,397.0105896,0.0005058992538,397.0105896,0.117142424,
396.507019,0.06296527386,396.507019,0.06283201277,396.507019,0.0001638632093,396.507019,0.1174872965,
396.003418,0.06372926384,396.003418,0.06333697587,396.003418,6.062916873E-005,396.003418,0.1174618155,
395.4997559,0.06451916695,395.4997559,0.06438747048,395.4997559,-8.386244008E-005,395.4997559,0.1178013384,
394.9960632,0.06558845192,394.9960632,0.06531719118,394.9960632,6.479741569E-005,394.9960632,0.1176629439,
394.4923706,0.06667328626,394.4923706,0.06657572091,394.4923706,0.0001646659657,394.4923706,0.1172823235,
393.9885864,0.06795831025,393.9885864,0.06778344512,393.9885864,0.000274970138,393.9885864,0.1176233664,
393.4848022,0.06887760758,393.4848022,0.06875856221,393.4848022,0.0001348609512,393.4848022,0.1179155335,
392.9809265,0.07034212351,392.9809265,0.0702380687,392.9809265,-0.0002340496139,392.9809265,0.1179959625,
392.5158386,0.07183495909,392.5158386,0.07156261057,392.5158386,-0.0001452477591,392.5158386,0.1178131551,
392.0119019,0.07323855907,392.0119019,0.07299736142,392.0119019,3.603476216E-005,392.0119019,0.1177341565,
391.5079651,0.07532485574,391.5079651,0.07516872138,391.5079651,0.0004898056504,391.5079651,0.118201822,
391.0039673,0.07710898668,391.0039673,0.07678165287,391.0039673,0.0004559876688,391.0039673,0.118505463,
390.4999084,0.07912323624,390.4999084,0.0788051188,390.4999084,0.0002731828718,390.4999084,0.1187370494,
389.9958191,0.0809372291,389.9958191,0.08065260202,389.9958191,0.0001110650046,389.9958191,0.1188322604,
389.4916992,0.08302419633,389.4916992,0.08288087696,389.4916992,0.0001418782776,389.4916992,0.1189990863,
388.9875488,0.08603957295,388.9875488,0.08559177816,388.9875488,0.000380949612,388.9875488,0.1193859503,
388.4833374,0.08786706626,388.4833374,0.08790817112,388.4833374,0.0002052983618,388.4833374,0.1192963421,
388.0178833,0.0906790942,388.0178833,0.09034201503,388.0178833,0.0003217782069,388.0178833,0.1195152178,
387.5135803,0.0932841599,387.5135803,0.09332029521,387.5135803,0.0005656401045,387.5135803,0.1197244897,
387.0092773,0.09629393369,387.0092773,0.09612010419,387.0092773,0.000660386926,387.0092773,0.1198938116,
386.5049438,0.1000510156,386.5049438,0.09983129799,386.5049438,0.0005957339308,386.5049438,0.120080024,
386.0005493,0.1032359824,386.0005493,0.1029532254,386.0005493,0.0008083163411,386.0005493,0.1206675023,
385.4960938,0.107685104,385.4960938,0.1072993726,385.4960938,0.0007870248519,385.4960938,0.1205329373,
384.9916382,0.1113810018,384.9916382,0.1107129753,384.9916382,0.0008706925437,384.9916382,0.1208269298,
384.4871216,0.1152984947,384.4871216,0.1153650358,384.4871216,0.00103392452,384.4871216,0.1209456548,
383.9825439,0.1203308851,383.9825439,0.1200482175,383.9825439,0.001376828644,383.9825439,0.1213308349,
383.5168152,0.1237902269,383.5168152,0.123636283,383.5168152,0.001465674839,383.5168152,0.1216258183,
383.0121765,0.1298308223,383.0121765,0.1295798123,383.0121765,0.001615931396,383.0121765,0.122001797,
382.5074768,0.1349957138,382.5074768,0.1347762942,382.5074768,0.001727540395,382.5074768,0.1221762598,
382.0028076,0.1406892091,382.0028076,0.1402731091,382.0028076,0.001776714693,382.0028076,0.1227338538,
381.4980469,0.1484152973,381.4980469,0.147572726,381.4980469,0.001991124358,381.4980469,0.1229163036,
380.9932556,0.1540557295,380.9932556,0.1538508683,380.9932556,0.002182458527,380.9932556,0.1232824326,
380.4884644,0.1623714715,380.4884644,0.1623285115,380.4884644,0.002281800611,380.4884644,0.1234648451,
379.9835815,0.1697678119,379.9835815,0.1693049073,379.9835815,0.002523771487,379.9835815,0.1238310263,
379.5175171,0.1780067831,379.5175171,0.1777411848,379.5175171,0.002479068469,379.5175171,0.1242082641,
379.0125732,0.1888907552,379.0125732,0.188141495,379.0125732,0.002620040439,379.0125732,0.1246137992,
378.5076294,0.1971830279,378.5076294,0.1962435991,378.5076294,0.002858630149,378.5076294,0.1252763867,
378.002594,0.2085048854,378.002594,0.2076246738,378.002594,0.003292355686,378.002594,0.1249358356,
377.4975281,0.2176886499,377.4975281,0.2169538587,377.4975281,0.003764061024,377.4975281,0.1254058331,
376.9924622,0.2297306955,376.9924622,0.2294757813,376.9924622,0.004013704602,376.9924622,0.1259849966,
376.4873352,0.2469798774,376.4873352,0.2466681302,376.4873352,0.00415757997,376.4873352,0.1263375133,
375.9821777,0.2613653541,375.9821777,0.2594159245,375.9821777,0.004329006653,375.9821777,0.1270054132,
375.5158081,0.2784891725,375.5158081,0.2773848474,375.5158081,0.004541280214,375.5158081,0.1272944957,
375.0105896,0.2941773832,375.0105896,0.292822212,375.0105896,0.004647730384,375.0105896,0.1275095642,
374.5053101,0.3161438704,374.5053101,0.3141171932,374.5053101,0.004966425709,374.5053101,0.1282291561,
374,0.3390288055,374,0.3376711309,374,0.004948412068,374,0.1281734109,
373.4946289,0.359593153,373.4946289,0.3584834933,373.4946289,0.005150143523,373.4946289,0.1285068095,
372.9892578,0.3918263912,372.9892578,0.3890825808,372.9892578,0.005382605363,372.9892578,0.129010886,
372.4838257,0.4160916507,372.4838257,0.4133853316,372.4838257,0.005674119107,372.4838257,0.1295351684,
372.0172119,0.4453840554,372.0172119,0.4427346885,372.0172119,0.00577738462,372.0172119,0.1297852993,
371.5117188,0.4837560058,371.5117188,0.4811551869,371.5117188,0.006184626836,371.5117188,0.1303473115,
371.0061646,0.5197404027,371.0061646,0.5155909061,371.0061646,0.006092132535,371.0061646,0.1302378029,
370.5006104,0.5646609068,370.5006104,0.5612409115,370.5006104,0.006254608277,370.5006104,0.130721584,
369.9949951,0.604005456,369.9949951,0.6019870043,369.9949951,0.006522846874,369.9949951,0.1308529377,
369.4893494,0.6600003839,369.4893494,0.6553874016,369.4893494,0.006635303609,369.4893494,0.1313302964,
368.9836426,0.7165229321,368.9836426,0.7138845325,368.9836426,0.006870587356,368.9836426,0.1320334524,
368.5168457,0.7678963542,368.5168457,0.7614098191,368.5168457,0.006956803147,368.5168457,0.1324425489,
368.0110474,0.8527863622,368.0110474,0.8433796167,368.0110474,0.007151390892,368.0110474,0.1327296346,
367.5052795,0.9052141905,367.5052795,0.9018667936,367.5052795,0.007346013095,367.5052795,0.1328816861,
366.9994507,0.9836710691,366.9994507,0.9766641259,366.9994507,0.007519467268,366.9994507,0.1332345754,
366.4935608,1.090200067,366.4935608,1.08488667,366.4935608,0.007694413885,366.4935608,0.1337834448,
365.9876099,1.194126606,365.9876099,1.186858416,365.9876099,0.007773493417,365.9876099,0.1340371072,
365.4816895,1.327702045,365.4816895,1.327432275,365.4816895,0.007837221026,365.4816895,0.1346418709,
365.0146179,1.437541008,365.0146179,1.430781126,365.0146179,0.00798484683,365.0146179,0.1348155588,
364.5085754,1.597893238,364.5085754,1.592033744,364.5085754,0.008063583635,364.5085754,0.1353699714,
364.002533,1.76532948,364.002533,1.763409376,364.002533,0.008152938448,364.002533,0.1359731406,
363.4964294,1.950457692,363.4964294,1.947558284,363.4964294,0.008015380241,363.4964294,0.1364473701,
362.9902954,2.203253269,362.9902954,2.200659275,362.9902954,0.008080567233,362.9902954,0.1366606355,
362.4841309,2.363841295,362.4841309,2.347415447,362.4841309,0.008572843857,362.4841309,0.1368723512,
362.0168457,2.531775713,362.0168457,2.514845371,362.0168457,0.009086033329,362.0168457,0.1370992362,
361.5106506,2.794275284,361.5106506,2.775833845,361.5106506,0.00916893594,361.5106506,0.1377635002,
361.004364,3.005281687,361.004364,3.047012329,361.004364,0.00899973698,361.004364,0.1378198862,
360.4980164,3.247724533,360.4980164,3.187440157,360.4980164,0.00923686102,360.4980164,0.138633579,
359.9916687,3.404383183,359.9916687,3.380264997,359.9916687,0.009185671806,359.9916687,0.1397227496,
359.4852905,3.556607485,359.4852905,3.499006987,359.4852905,0.008953992277,359.4852905,0.140074715,
359.0178223,3.742723227,359.0178223,3.611103058,359.0178223,0.008988452144,359.0178223,0.140908435,
358.5113525,3.639166594,358.5113525,3.875696659,358.5113525,0.009176179767,358.5113525,0.1410437077,
358.0048523,3.759444952,358.0048523,3.639873505,358.0048523,0.009508959018,358.0048523,0.1413494498,
357.4983215,3.656137943,357.4983215,3.644947529,357.4983215,0.009803680703,357.4983215,0.1421108693,
356.9917603,3.663018465,356.9917603,3.663268566,356.9917603,0.009577810764,356.9917603,0.1432542056,
356.4851685,3.62911582,356.4851685,3.547766924,356.4851685,0.009528566152,356.4851685,0.1439439505,
356.0174866,3.860609055,356.0174866,3.652586699,356.0174866,0.009803124703,356.0174866,0.1449338496,
355.5108032,3.635744095,355.5108032,3.844862223,355.5108032,0.009663454257,355.5108032,0.1459293962,
355.0040894,3.619149923,355.0040894,3.788143873,355.0040894,0.009648182429,355.0040894,0.1469974667,
354.497345,3.558841705,354.497345,3.601606846,354.497345,0.009733839892,354.497345,0.1480282694,
353.9905701,3.751657724,353.9905701,3.986379147,353.9905701,0.009985217825,353.9905701,0.149082005,
353.4837341,3.841058969,353.4837341,3.545207024,353.4837341,0.01002262067,353.4837341,0.1500095129,
353.0158997,3.644010544,353.0158997,3.780219793,353.0158997,0.009959736839,353.0158997,0.1512381136,
352.5090027,3.534929276,352.5090027,3.574169159,352.5090027,0.009914102964,352.5090027,0.1524227858,
352.0020752,3.669496536,352.0020752,3.512579679,352.0020752,0.0100322105,352.0020752,0.1535585374,
351.4951172,3.709607124,351.4951172,3.695905447,351.4951172,0.009984794073,351.4951172,0.1549127698,
350.9881287,3.555061817,350.9881287,3.623748302,350.9881287,0.009971020743,350.9881287,0.1556156725,
350.4810791,3.598510504,350.4810791,3.500762701,350.4810791,0.01015922613,350.4810791,0.1568589509,
350.013031,3.917481661,350.013031,3.435593605,350.013031,0.01015625801,350.013031,0.1580255926,
349.5058899,3.586976051,349.5058899,3.648124933,349.5058899,0.01022293326,349.5058899,0.1590296924,
348.9987793,3.505431175,348.9987793,3.681784391,348.9987793,0.01018532831,348.9987793,0.1601234823,
348.4916077,3.448954344,348.4916077,3.897091866,348.4916077,0.01007404085,348.4916077,0.1612837762,
347.984436,3.686405897,347.984436,3.629855156,347.984436,0.009943315759,347.984436,0.1634788513,
347.5162048,3.791619301,347.5162048,3.881690502,347.5162048,0.01002214383,347.5162048,0.1650693566,
347.0089417,3.60319519,347.0089417,3.706653833,347.0089417,0.01010790095,347.0089417,0.1674541235,
346.5015869,3.674730778,346.5015869,3.743429899,346.5015869,0.01014314126,346.5015869,0.1698022485,
345.9942627,3.90404892,345.9942627,3.76728487,345.9942627,0.01012284495,345.9942627,0.1717200577,
345.4868774,3.626906395,345.4868774,3.800186396,345.4868774,0.01017046161,345.4868774,0.1741698533,
345.0184937,4.055915356,345.0184937,3.768175364,345.0184937,0.01025301497,345.0184937,0.1764595807,
344.5110474,3.570830822,344.5110474,3.695305824,344.5110474,0.0104681775,344.5110474,0.1798009276,
344.00354,3.764796972,344.00354,3.554005623,344.00354,0.01038587466,344.00354,0.1830658764,
343.4960327,3.680445433,343.4960327,3.689631462,343.4960327,0.01034056768,343.4960327,0.1861239374,
342.9884949,3.582331419,342.9884949,3.708509445,342.9884949,0.0102371918,342.9884949,0.1892244816,
342.480896,3.853752613,342.480896,3.961065292,342.480896,0.01028047409,342.480896,0.1922165304,
342.0123596,3.489614248,342.0123596,3.826278448,342.0123596,0.01028845273,342.0123596,0.1966487318,
341.5046997,3.626089096,341.5046997,3.554140329,341.5046997,0.01036267728,341.5046997,0.1999185085,
340.9969788,3.79556489,340.9969788,3.65128684,340.9969788,0.01025375724,340.9969788,0.2040255964,
340.4892578,3.586409092,340.4892578,3.64099884,340.4892578,0.01008371171,340.4892578,0.2091026157,
339.9815063,3.554486275,339.9815063,3.920787334,339.9815063,0.01011656504,339.9815063,0.2145334929,
339.5127563,3.807421207,339.5127563,3.73611927,339.5127563,0.01004150882,339.5127563,0.2209815085,
339.0049438,3.821130276,339.0049438,3.658160925,339.0049438,0.01006029174,339.0049438,0.2271804363,
338.4970398,3.747128725,338.4970398,3.993317842,338.4970398,0.01002119016,338.4970398,0.2329566032,
337.9891663,3.587380409,337.9891663,3.813288927,337.9891663,0.01007888932,337.9891663,0.2417007834,
337.4812622,3.493393898,337.4812622,3.60027194,337.4812622,0.01014430728,337.4812622,0.249056384,
337.0123596,3.778049231,337.0123596,3.59965086,337.0123596,0.01001356076,337.0123596,0.2577730119,
336.504364,3.914227247,336.504364,3.738196611,336.504364,0.009937753901,336.504364,0.2681230009,
335.9963379,3.823659658,335.9963379,3.670972347,335.9963379,0.009922843426,335.9963379,0.276424706,
335.4882507,3.580647469,335.4882507,3.773605824,335.4882507,0.009936191142,335.4882507,0.2889096439,
335.0192566,3.789412498,335.0192566,3.670999527,335.0192566,0.009769447148,335.0192566,0.2983568013,
334.5111084,3.901651382,334.5111084,3.621121168,334.5111084,0.009685635567,334.5111084,0.3110168874,
334.0029602,4.065050125,334.0029602,3.848362923,334.0029602,0.009665122256,334.0029602,0.3220576346,
333.494751,3.956245184,333.494751,3.829951525,333.494751,0.009803998284,333.494751,0.3336834908,
332.9865417,3.674535036,332.9865417,3.868290424,332.9865417,0.009883330204,332.9865417,0.3522947133,
332.5173645,3.675613165,332.5173645,3.864645243,332.5173645,0.009743476287,332.5173645,0.363427341,
332.0090942,3.907665491,332.0090942,3.820838928,332.0090942,0.009658028372,332.0090942,0.3771066666,
331.5007324,3.909777403,331.5007324,3.691951513,331.5007324,0.009624150582,331.5007324,0.3920712769,
330.9923706,3.74362874,330.9923706,3.681144953,330.9923706,0.009524200112,330.9923706,0.4074529409,
330.4839783,3.784410954,330.4839783,3.557067394,330.4839783,0.009494724683,330.4839783,0.4252902269,
330.0146484,3.651552439,330.0146484,3.792908192,330.0146484,0.009565082379,330.0146484,0.4349579811,
329.5061951,3.893961191,329.5061951,3.878866673,329.5061951,0.00948038511,329.5061951,0.4472187757,
328.9976501,3.608355045,328.9976501,3.755805731,328.9976501,0.009494354017,328.9976501,0.4587161541,
328.4891663,3.695537329,328.4891663,3.741107225,328.4891663,0.009371605702,328.4891663,0.4728917181,
327.9805908,3.874472618,327.9805908,4.007297516,327.9805908,0.00937565323,327.9805908,0.4896379411,
327.5111389,4.074296474,327.5111389,3.87822175,327.5111389,0.009288215078,327.5111389,0.4954064488,
327.0025024,3.846435785,327.0025024,3.817725897,327.0025024,0.009454377927,327.0025024,0.4990785718,
326.4938354,4.002276421,326.4938354,3.757134438,326.4938354,0.009602026083,326.4938354,0.5044506192,
325.9851379,4.088895798,325.9851379,4.022740841,325.9851379,0.009508192539,325.9851379,0.5151597261,
325.5155334,3.916429281,325.5155334,4.002321243,325.5155334,0.009578684345,325.5155334,0.5234422684,
325.0067749,3.862952709,325.0067749,4.177475452,325.0067749,0.009711761959,325.0067749,0.5274644494,
324.4979858,3.988947153,324.4979858,3.832488775,324.4979858,0.0100163687,324.4979858,0.5342623591,
323.9891663,3.957312346,323.9891663,3.71805191,323.9891663,0.01008000225,323.9891663,0.5445891619,
323.5194702,4.101319313,323.5194702,3.614627123,323.5194702,0.01025436632,323.5194702,0.5528831482,
323.0105591,4.476236343,323.0105591,3.753683329,323.0105591,0.01015681494,323.0105591,0.5565704107,
322.5016479,3.728741407,322.5016479,3.905240297,322.5016479,0.01018898468,322.5016479,0.5634942651,
321.9927063,3.685617685,321.9927063,3.676983833,321.9927063,0.01037932653,321.9927063,0.576185286,
321.4837036,3.729665279,321.4837036,3.707312584,321.4837036,0.01048801281,321.4837036,0.5871725082,
321.013855,3.823877335,321.013855,3.870259523,321.013855,0.01049199142,321.013855,0.5858600736,
320.5047913,3.908116817,320.5047913,3.94777441,320.5047913,0.01048366446,320.5047913,0.5768408775,
319.995697,3.748619318,319.995697,3.758964062,319.995697,0.0107093947,319.995697,0.5735852122,
319.4865723,3.993439674,319.4865723,3.934956312,319.4865723,0.01117897686,319.4865723,0.5774217248,
319.0166321,3.713577032,319.0166321,3.782781363,319.0166321,0.01128754485,319.0166321,0.5789898038,
318.5074158,3.639261961,318.5074158,3.847531796,318.5074158,0.01130808238,318.5074158,0.5715467334,
317.99823,3.925075769,317.99823,3.721379519,317.99823,0.01135960221,317.99823,0.5639066696,
317.4889832,3.837046385,317.4889832,3.864106894,317.4889832,0.01145160478,317.4889832,0.5653349161,
317.0188904,4.095015049,317.0188904,3.84231782,317.0188904,0.01170174498,317.0188904,0.5689421892,
316.5095825,4.027669907,316.5095825,3.95537591,316.5095825,0.0116201397,316.5095825,0.566249609,
316.0002441,4.026422024,316.0002441,3.970191956,316.0002441,0.01183683146,316.0002441,0.5637702346,
315.4908447,4.050592899,315.4908447,3.941504002,315.4908447,0.01229147147,315.4908447,0.5628635883,
314.9814758,4.262513638,314.9814758,3.997908592,314.9814758,0.01285941433,314.9814758,0.5604854822,
314.5112305,3.876461744,314.5112305,4.048942566,314.5112305,0.0129800057,314.5112305,0.5497800708,
314.00177,4.044440269,314.00177,3.980660677,314.00177,0.01299160719,314.00177,0.5332881808,
313.4922791,4.105858326,313.4922791,3.85162282,313.4922791,0.01299051382,313.4922791,0.5196536779,
312.9827271,3.936445475,312.9827271,4.724676132,312.9827271,0.01302820351,312.9827271,0.5061943531,
312.5123901,4.061840057,312.5123901,4.081110954,312.5123901,0.01310828701,312.5123901,0.4990513623,
312.0027771,3.934215307,312.0027771,3.938982964,312.0027771,0.01333989762,312.0027771,0.4894648492,
311.4931641,3.988137722,311.4931641,4.017443657,311.4931641,0.01345397346,311.4931641,0.4782028496,
310.9835205,4.109550476,310.9835205,4.121813774,310.9835205,0.01360002253,310.9835205,0.4722328484,
310.5130615,4.143908024,310.5130615,3.934170961,310.5130615,0.01374259405,310.5130615,0.4687033892,
310.0033264,4.257640362,310.0033264,4.298809052,310.0033264,0.01386837475,310.0033264,0.4633843601,
309.4935913,3.9436059,309.4935913,4.067415714,309.4935913,0.01408934779,309.4935913,0.4514618814,
308.9838257,4.276214123,308.9838257,4.080964088,308.9838257,0.01438288577,308.9838257,0.4387377799,
308.5132446,4.037614822,308.5132446,4.188758373,308.5132446,0.014601578,308.5132446,0.4277573228,
308.0033875,4.034514427,308.0033875,4.091252804,308.0033875,0.01448540669,308.0033875,0.4108689725,
307.4935303,4.020856857,307.4935303,3.893841505,307.4935303,0.01447622664,307.4935303,0.3969105482,
306.9836121,3.930198431,306.9836121,4.406461716,306.9836121,0.01472926792,306.9836121,0.3806473315,
306.5129089,4.029760361,306.5129089,3.8427248,306.5129089,0.01487282664,306.5129089,0.3686705232,
306.0029602,4.237720013,306.0029602,4.124773026,306.0029602,0.01498084888,306.0029602,0.3630028069,
305.4929504,3.970004082,305.4929504,4.469914913,305.4929504,0.01502187271,305.4929504,0.3540303111,
304.9829407,4.011937618,304.9829407,4.249098301,304.9829407,0.01508160774,304.9829407,0.3458922803,
304.5121155,4.142788887,304.5121155,4.248289585,304.5121155,0.01507833786,304.5121155,0.3387839496,
304.0020447,4.141863346,304.0020447,4.115505219,304.0020447,0.01513558719,304.0020447,0.3298073113,
303.4919434,3.979103088,303.4919434,4.023978233,303.4919434,0.01523654349,303.4919434,0.3201058507,
302.9818115,4.291559219,302.9818115,4.455993652,302.9818115,0.0153520843,302.9818115,0.3072688878,
302.5108643,4.178809643,302.5108643,4.257908821,302.5108643,0.01550818887,302.5108643,0.300073117,
302.0006714,4.478809834,302.0006714,4.235285759,302.0006714,0.01557998452,302.0006714,0.2900140285,
301.4904175,4.043230534,301.4904175,4.342150688,301.4904175,0.01556616649,301.4904175,0.2794388533,
301.0194092,4.114943504,301.0194092,4.018070698,301.0194092,0.01552286372,301.0194092,0.2735207379,
300.5091248,4.502667427,300.5091248,4.078217983,300.5091248,0.01570009813,300.5091248,0.2666426003,
299.9988098,3.917182446,299.9988098,4.032674313,299.9988098,0.01608041115,299.9988098,0.2626892328,
299.4884644,3.993158817,299.4884644,4.000256062,299.4884644,0.01613387093,299.4884644,0.257399708,
299.0173645,3.962661505,299.0173645,4.115116596,299.0173645,0.01621071249,299.0173645,0.2509151101,
298.5069275,4.062058926,298.5069275,3.983515024,298.5069275,0.01617374085,298.5069275,0.2460618764,
297.9964905,4.17580986,297.9964905,4.077223301,297.9964905,0.01657869853,297.9964905,0.240545243,
297.4859924,4.068334103,297.4859924,3.962625027,297.4859924,0.01681722701,297.4859924,0.23661156,
297.0147705,4.159618378,297.0147705,4.043863297,297.0147705,0.01696005091,297.0147705,0.2320445031,
296.5042419,4.044027328,296.5042419,4.127799034,296.5042419,0.01699154451,296.5042419,0.2260263115,
295.9936829,4.321374893,295.9936829,3.948845387,295.9936829,0.01703453623,295.9936829,0.2229279578,
295.4830933,4.007120132,295.4830933,4.017012119,295.4830933,0.01742822677,295.4830933,0.2200037092,
295.0117493,4.18680191,295.0117493,4.158605576,295.0117493,0.01776019111,295.0117493,0.2176469564,
294.5011292,3.908782482,294.5011292,4.06597805,294.5011292,0.01799723692,294.5011292,0.215425238,
293.9904175,4.143815994,293.9904175,4.165554523,293.9904175,0.01789083704,293.9904175,0.2125771642,
293.5189819,4.125985622,293.5189819,4.217823505,293.5189819,0.01784786768,293.5189819,0.2108453512,
293.0082397,4.007637024,293.0082397,3.907263279,293.0082397,0.01776949503,293.0082397,0.208435148,
292.4974976,3.891378403,292.4974976,3.949148893,292.4974976,0.01761925966,292.4974976,0.2063681334,
291.9866943,4.118371964,291.9866943,4.030452251,291.9866943,0.01709923334,291.9866943,0.204286471,
291.5151978,3.869590044,291.5151978,4.032679081,291.5151978,0.01691359468,291.5151978,0.2021300495,
291.0043335,4.044035435,291.0043335,4.115978241,291.0043335,0.01687839255,291.0043335,0.2007813007,
290.4934387,3.969982624,290.4934387,3.847755671,290.4934387,0.01701229997,290.4934387,0.1998664588,
289.9825134,4.277648449,289.9825134,4.144804001,289.9825134,0.01666947268,289.9825134,0.1988647878,
289.5108948,4.07151556,289.5108948,4.392282486,289.5108948,0.01670320518,289.5108948,0.1986521035,
288.9999084,3.922079802,288.9999084,3.857330322,288.9999084,0.01701159962,288.9999084,0.1984062791,
288.4889221,3.929256678,288.4889221,3.940054178,288.4889221,0.01690043323,288.4889221,0.1980443895,
288.0172119,4.038896084,288.0172119,3.945801735,288.0172119,0.01694750786,288.0172119,0.1975690871,
287.5061646,4.169234753,287.5061646,4.081535816,287.5061646,0.01719975844,287.5061646,0.1971799731,
286.9950867,3.908680916,286.9950867,4.139686108,286.9950867,0.01736463793,286.9950867,0.1972258389,
286.4839478,3.999601126,286.4839478,4.024304867,286.4839478,0.01751370728,286.4839478,0.1968366951,
286.0121155,3.975789785,286.0121155,4.127912521,286.0121155,0.017504327,286.0121155,0.1969008893,
285.500946,3.976489544,285.500946,3.992874146,285.500946,0.01754308492,285.500946,0.1970286071,
284.9897461,4.411218643,284.9897461,4.222869873,284.9897461,0.01735159941,284.9897461,0.1964256912,
284.5178528,4.009424686,284.5178528,3.976120234,284.5178528,0.01741725951,284.5178528,0.1970159411,
284.0065918,3.854402542,284.0065918,3.800287247,284.0065918,0.01752462238,284.0065918,0.1980389655,
283.4953308,3.83183074,283.4953308,3.815871954,283.4953308,0.01747266203,283.4953308,0.1982745677,
282.9840088,3.649691582,282.9840088,3.696310043,282.9840088,0.01774897426,282.9840088,0.1986087859,
282.5119934,3.557144642,282.5119934,3.54908061,282.5119934,0.0180104319,282.5119934,0.1991988569,
282.0006104,3.325972795,282.0006104,3.354382753,282.0006104,0.01826294884,282.0006104,0.1993107945,
281.4891968,3.074499846,281.4891968,3.083708286,281.4891968,0.01842988096,281.4891968,0.2001101524,
281.0171509,2.92015624,281.0171509,2.92462039,281.0171509,0.01814730652,281.0171509,0.1999874264,
280.5057068,2.722935677,280.5057068,2.704902649,280.5057068,0.01833179966,280.5057068,0.200857833,
279.9942017,2.536661863,279.9942017,2.534391642,279.9942017,0.01842658594,279.9942017,0.2017804831,
279.4826965,2.382059336,279.4826965,2.386820793,279.4826965,0.01855013892,279.4826965,0.202661559,
279.010498,2.241208315,279.010498,2.242637157,279.010498,0.01859322935,279.010498,0.2033414096,
278.4989624,2.135862112,278.4989624,2.140194416,278.4989624,0.01861271076,278.4989624,0.2041882873,
277.9873657,2.014253378,277.9873657,2.014316559,277.9873657,0.01926014759,277.9873657,0.205635488,
277.5151062,1.935958266,277.5151062,1.937207699,277.5151062,0.01954474859,277.5151062,0.2063538581,
277.003479,1.86393714,277.003479,1.865167975,277.003479,0.0192719195,277.003479,0.2066854537,
276.4917603,1.78192687,276.4917603,1.784669757,276.4917603,0.01963479072,276.4917603,0.2078572959,
276.0194397,1.738365769,276.0194397,1.741174936,276.0194397,0.01978426054,276.0194397,0.2090348303,
275.5076904,1.684875369,275.5076904,1.685554147,275.5076904,0.01984189078,275.5076904,0.2102565616,
274.9959412,1.644937277,274.9959412,1.645493269,274.9959412,0.01976984739,274.9959412,0.2115336508,
274.4841614,1.620833516,274.4841614,1.621510148,274.4841614,0.01984254085,274.4841614,0.2125522494,
274.0117188,1.603408337,274.0117188,1.604476929,274.0117188,0.02010710537,274.0117188,0.2141199857,
273.4999084,1.599774003,273.4999084,1.60039258,273.4999084,0.01990112662,273.4999084,0.2148565799,
272.9880066,1.609838605,272.9880066,1.610645294,272.9880066,0.01932114549,272.9880066,0.2160431296,
272.5155029,1.627945185,272.5155029,1.628902078,272.5155029,0.01925037988,272.5155029,0.2160852402,
272.00354,1.651996732,272.00354,1.654240012,272.00354,0.01923849992,272.00354,0.2160038799,
271.4916382,1.714840412,271.4916382,1.715526223,271.4916382,0.01913836785,271.4916382,0.2175447941,
271.019043,1.78837359,271.019043,1.78816247,271.019043,0.01802940108,271.019043,0.2183860391,
270.5070496,1.903818488,270.5070496,1.907756686,270.5070496,0.01721917652,270.5070496,0.2193594873,
269.9950256,2.062521696,269.9950256,2.05902791,269.9950256,0.01676806808,269.9950256,0.2203544527,
269.4829712,2.224323273,269.4829712,2.228602648,269.4829712,0.0164227467,269.4829712,0.2212577313,
269.0102539,2.473766565,269.0102539,2.488241911,269.0102539,0.01597823761,269.0102539,0.2226063907,
268.4981384,2.759990454,268.4981384,2.756262302,268.4981384,0.015669154,268.4981384,0.224178493,
267.9860229,3.185860634,267.9860229,3.1892519,267.9860229,0.01531564072,267.9860229,0.2256239951,
267.5132751,3.574550629,267.5132751,3.556794405,267.5132751,0.01516834367,267.5132751,0.2266338766,
267.0010681,3.813315153,267.0010681,3.824210882,267.0010681,0.01539912447,267.0010681,0.2278354317,
266.4888611,3.946004391,266.4888611,4.170461178,266.4888611,0.0149624683,266.4888611,0.2307685912,
266.0159912,3.979763508,266.0159912,4.050956249,266.0159912,0.01465855073,266.0159912,0.2333665192,
265.5037537,3.890024424,265.5037537,4.357795238,265.5037537,0.01438957546,265.5037537,0.2362015098,
264.9914551,4.289305687,264.9914551,3.995013237,264.9914551,0.01427792851,264.9914551,0.2399835438,
264.5185242,4.016370296,264.5185242,3.994935513,264.5185242,0.01408793032,264.5185242,0.2431596816,
264.0061951,4.082359791,264.0061951,3.977685452,264.0061951,0.01392565202,264.0061951,0.2484032065,
263.4938049,4.162115574,263.4938049,4.147577286,263.4938049,0.01388555951,263.4938049,0.2532677352,
262.9814148,3.779069424,262.9814148,3.907751799,262.9814148,0.01397783123,262.9814148,0.2616052628,
262.5083923,3.929576397,262.5083923,3.928677559,262.5083923,0.01369415689,262.5083923,0.27216506,
261.9959412,4.090749264,261.9959412,4.029251575,261.9959412,0.01338204835,261.9959412,0.2825019956,
261.48349,4.101476192,261.48349,4.205191135,261.48349,0.01330066007,261.48349,0.2964913547,
261.010376,4.140225887,261.010376,4.146356583,261.010376,0.01348361187,261.010376,0.3065564036,
260.4978943,4.288070679,260.4978943,4.039227486,260.4978943,0.01375443023,260.4978943,0.3218975067,
259.985321,3.986234665,259.985321,4.066567898,259.985321,0.01391782053,259.985321,0.3447569013,
259.512146,4.119740486,259.512146,4.037628174,259.512146,0.01373535302,259.512146,0.3663188815,
258.9995422,4.044356823,258.9995422,4.019185543,258.9995422,0.01341264322,258.9995422,0.4057685435,
258.486908,3.880345583,258.486908,4.080292702,258.486908,0.01316426322,258.486908,0.4457790852,
258.0137024,4.10283041,258.0137024,4.111546516,258.0137024,0.01278876048,258.0137024,0.4971154928,
257.5010071,4.289302826,257.5010071,4.097843647,257.5010071,0.01285328157,257.5010071,0.557077229,
256.9883118,4.051467419,256.9883118,4.23323679,256.9883118,0.01261862647,256.9883118,0.61835742,
256.5149841,4.120364666,256.5149841,4.156999111,256.5149841,0.01232499909,256.5149841,0.7136356235,
256.0022278,4.040615559,256.0022278,4.165522099,256.0022278,0.01234369446,256.0022278,0.8100213408,
255.4894562,4.168144226,255.4894562,4.291375637,255.4894562,0.01214005798,255.4894562,0.9284875989,
255.016098,3.941957235,255.016098,3.825054646,255.016098,0.01215895917,255.016098,1.087877989,
254.5032501,4.173801899,254.5032501,3.976467609,254.5032501,0.01199585665,254.5032501,1.227570653,
253.9904175,3.995708704,253.9904175,3.895424366,253.9904175,0.01188101899,253.9904175,1.439207077,
253.5169525,4.013099194,253.5169525,4.04167366,253.5169525,0.01166220382,253.5169525,1.671098113,
253.0040436,4.031015873,253.0040436,4.156135082,253.0040436,0.01172945648,253.0040436,1.879505515,
252.4911041,3.97658968,252.4911041,4.063405991,252.4911041,0.01185978949,252.4911041,2.151905298,
252.0176086,3.981807709,252.0176086,4.059821129,252.0176086,0.01191089582,252.0176086,2.355197191,
251.5046082,4.002722263,251.5046082,4.083670616,251.5046082,0.0116063673,251.5046082,2.707716703,
250.9915924,3.970635414,250.9915924,4.063498974,250.9915924,0.01127710473,250.9915924,3.025060177,
250.5180054,4.038973331,250.5180054,4.145016193,250.5180054,0.01106079668,250.5180054,3.241812944,
250.0049438,3.854429007,250.0049438,3.861875057,250.0049438,0.01104255486,250.0049438,3.405383348,
249.4918671,3.985996485,249.4918671,3.891096592,249.4918671,0.01097036432,249.4918671,3.503736019,
249.0182343,3.91023922,249.0182343,3.96018362,249.0182343,0.01083161961,249.0182343,3.608124018,
248.5051117,3.983831644,248.5051117,4.004167557,248.5051117,0.01071470138,248.5051117,3.736088991,
247.9919281,4.037282944,247.9919281,4.118174076,247.9919281,0.01078454033,247.9919281,3.787640095,
247.518219,4.028017998,247.518219,3.98082304,247.518219,0.01125154737,247.518219,3.801226139,
247.0049896,3.882325411,247.0049896,3.947544813,247.0049896,0.01132062357,247.0049896,3.735121489,
246.4917603,3.74248004,246.4917603,3.898349524,246.4917603,0.01102837641,246.4917603,3.629520655,
246.0179901,4.066783428,246.0179901,4.05361557,246.0179901,0.0105456952,246.0179901,3.737897873,
245.504715,4.153506279,245.504715,4.010794163,245.504715,0.01026624069,245.504715,3.729793072,
244.9914093,3.820522547,244.9914093,3.82224226,244.9914093,0.009890666232,244.9914093,3.669211388,
244.5175323,3.828601837,244.5175323,3.787200928,244.5175323,0.009562939405,244.5175323,3.668663263,
244.0041809,3.890692711,244.0041809,3.999845028,244.0041809,0.009379620664,244.0041809,3.729447842,
243.4908142,3.872898579,243.4908142,3.911561251,243.4908142,0.009456441738,243.4908142,3.78613019,
243.0169067,3.958872557,243.0169067,4.015946865,243.0169067,0.009465436451,243.0169067,3.82104063,
242.5034943,3.961129189,242.5034943,3.91465044,242.5034943,0.009356687777,242.5034943,3.793637514,
241.9900208,4.356481552,241.9900208,3.991609573,241.9900208,0.00890508201,241.9900208,3.797195196,
241.5160522,4.244695187,241.5160522,4.049687862,241.5160522,0.00869486481,241.5160522,3.731740236,
241.002533,4.015374184,241.002533,4.07871151,241.002533,0.008341861889,241.002533,3.67736578,
240.4889984,4.075752258,240.4889984,3.979903936,240.4889984,0.008051716723,240.4889984,3.633283138,
240.0149689,4.186308384,240.0149689,4.328785419,240.0149689,0.007557079662,240.0149689,3.743512392,
239.5013885,4.231255054,239.5013885,4.362420082,239.5013885,0.00726098381,239.5013885,3.694518805,
238.9878082,4.085172176,238.9878082,3.989506721,238.9878082,0.007256482262,238.9878082,3.620347738,
238.5136566,4.153332233,238.5136566,4.122590065,238.5136566,0.007171075791,238.5136566,3.645094872,
238.0000153,4.10862875,238.0000153,4.35797739,238.0000153,0.007036116906,238.0000153,3.702455521,
237.4863586,4.272469521,237.4863586,4.170693398,237.4863586,0.006895755883,237.4863586,3.735426903,
237.0121918,4.178649426,237.0121918,4.18983984,237.0121918,0.006793644279,237.0121918,3.805046082,
236.4984741,4.053408146,236.4984741,4.177429676,236.4984741,0.006889443845,236.4984741,3.790247679,
235.9847412,4.027685165,235.9847412,4.201592445,235.9847412,0.006798561197,235.9847412,3.791437387,
235.5104828,4.094647408,235.5104828,4.255220413,235.5104828,0.006672077347,235.5104828,3.798587799,
234.9966888,4.126686096,234.9966888,4.375476837,234.9966888,0.006825750228,234.9966888,3.984803438,
234.4828796,4.085721493,234.4828796,4.071511745,234.4828796,0.006966246292,234.4828796,3.882429123,
234.0085907,4.123912811,234.0085907,4.05200386,234.0085907,0.007067714818,234.0085907,3.72099781,
233.4947357,4.10603857,233.4947357,4.150941849,233.4947357,0.00684315851,233.4947357,3.768343449,
232.9808807,4.049107075,232.9808807,4.061151028,232.9808807,0.006655911449,232.9808807,3.78328371,
232.5064697,3.930673599,232.5064697,4.251919746,232.5064697,0.00669095153,232.5064697,3.794291019,
231.9925537,4.135025501,231.9925537,4.188914776,231.9925537,0.006799060851,231.9925537,3.909804344,
231.518158,4.059067726,231.518158,4.037020683,231.518158,0.007033696398,231.518158,3.854824305,
231.0041809,3.884567738,231.0041809,4.021915913,231.0041809,0.007179918233,231.0041809,3.761826277,
230.4901733,4.124179363,230.4901733,3.849604845,230.4901733,0.00715270685,230.4901733,3.754668951,
230.015686,4.012185574,230.015686,3.951194048,230.015686,0.007435667794,230.015686,3.820462227,
229.5016327,4.082858086,229.5016327,4.041674137,229.5016327,0.007810442708,229.5016327,3.83598423,
228.9875793,4.297585964,228.9875793,4.317947865,228.9875793,0.007956951857,228.9875793,3.873109818,
228.5130615,4.014211655,228.5130615,4.154717445,228.5130615,0.008143390529,228.5130615,3.87291646,
227.9989471,4.032016277,227.9989471,3.76307106,227.9989471,0.007897293195,227.9989471,3.499098301,
227.4848328,3.681512117,227.4848328,3.638375282,227.4848328,0.007792257238,227.4848328,3.574604034,
227.0102081,3.817424536,227.0102081,4.423329353,227.0102081,0.007545358501,227.0102081,3.422085047,
226.496048,3.794342279,226.496048,3.376153231,226.496048,0.007906282321,226.496048,3.442677736,
225.9818573,4.011283875,225.9818573,3.988217592,225.9818573,0.007905122824,225.9818573,3.88252449,
225.5071716,3.910738468,225.5071716,3.875825882,225.5071716,0.007885036059,225.5071716,3.829115629,
224.9929352,3.9287045,224.9929352,3.878287554,224.9929352,0.007736810949,224.9929352,3.844074488,
224.5182343,3.980976343,224.5182343,3.861763954,224.5182343,0.007744110189,224.5182343,3.806054354,
224.0039368,3.87607336,224.0039368,4.007660389,224.0039368,0.00776363723,224.0039368,3.775198221,
223.4896088,3.922666788,223.4896088,3.885546446,223.4896088,0.007727983408,223.4896088,3.798828602,
223.0148773,3.98420763,223.0148773,3.891580582,223.0148773,0.007626518607,223.0148773,3.740898132,
222.5005035,3.781733751,222.5005035,3.838718414,222.5005035,0.007680976298,222.5005035,3.824707985,
221.9861298,3.874995708,221.9861298,3.844243288,221.9861298,0.007716441993,221.9861298,3.777518034,
221.5112915,3.851583004,221.5112915,3.787656784,221.5112915,0.007742002141,221.5112915,3.677665472,
220.9968719,3.97668457,220.9968719,3.78731823,220.9968719,0.007558739278,220.9968719,3.790495396,
220.4824524,3.829067469,220.4824524,3.892652273,220.4824524,0.007603336126,220.4824524,3.798825979,
220.0075684,3.892581224,220.0075684,3.960808516,220.0075684,0.007903013378,220.0075684,3.784394979,
219.4930725,3.76471591,219.4930725,3.822778225,219.4930725,0.00815613009,219.4930725,3.755998611,
219.0181274,3.889579535,219.0181274,3.867779493,219.0181274,0.008358222432,219.0181274,3.707096577,
218.5036163,3.898317575,218.5036163,3.856359005,218.5036163,0.008953067474,218.5036163,3.731538057,
217.9890747,3.841954708,217.9890747,3.821633816,217.9890747,0.009436996654,217.9890747,3.759909153,
217.5140686,3.90823102,217.5140686,3.832882881,217.5140686,0.009765978903,217.5140686,3.668488026,
216.9994812,3.849052668,216.9994812,3.90043354,216.9994812,0.01038017496,216.9994812,3.741369486,
216.4848633,3.85710144,216.4848633,3.750086308,216.4848633,0.01122264564,216.4848633,3.803615808,
216.0098267,3.713286638,216.0098267,3.834614754,216.0098267,0.0121770883,216.0098267,3.749784946,
215.4951477,3.779580832,215.4951477,3.797538519,215.4951477,0.0124121448,215.4951477,3.76195097,
214.980484,3.826560974,214.980484,3.852824688,214.980484,0.01342209429,214.980484,3.780345678,
214.5053864,3.786180735,214.5053864,3.895391941,214.5053864,0.0157774277,214.5053864,3.826682329,
213.9906769,3.799118042,213.9906769,3.812639952,213.9906769,0.01697558165,213.9906769,3.768790722,
213.5154877,3.879073858,213.5154877,3.782378435,213.5154877,0.01727172546,213.5154877,3.66157341,
213.0007324,3.91976881,213.0007324,3.999372482,213.0007324,0.01950562187,213.0007324,3.768103123,
212.4859772,3.760360956,212.4859772,3.788063288,212.4859772,0.02438557893,212.4859772,3.767454147,
212.0107727,3.799091101,212.0107727,3.784865379,212.0107727,0.02722309902,212.0107727,3.74409008,
211.4959106,3.859579086,211.4959106,3.788491726,211.4959106,0.02761582099,211.4959106,3.620995283,
210.9810791,3.760499477,210.9810791,3.736194372,210.9810791,0.0364542082,210.9810791,3.685352802,
210.5058289,3.787372589,210.5058289,3.902194023,210.5058289,0.0466203317,210.5058289,3.74727273,
209.990921,3.989069462,209.990921,3.965890646,209.990921,0.04852928221,209.990921,3.836059093,
209.515625,3.774838209,209.515625,3.80711174,209.515625,0.05039755628,209.515625,3.679106474,
209.0007172,3.912579536,209.0007172,3.806096315,209.0007172,0.0656458661,209.0007172,3.702214003,
208.4857483,3.861232281,208.4857483,3.730512142,208.4857483,0.08500149846,208.4857483,3.701608181,
208.0103912,3.789304972,208.0103912,3.767380476,208.0103912,0.08333666623,208.0103912,3.757091761,
207.4953918,3.847909927,207.4953918,3.771758795,207.4953918,0.09120535105,207.4953918,3.735037088,
206.9803925,3.955160618,206.9803925,3.81606245,206.9803925,0.1290410608,206.9803925,3.684098482,
206.5049744,3.915447712,206.5049744,3.93701005,206.5049744,0.148419857,206.5049744,3.775035381,
205.9899292,3.815003395,205.9899292,3.847927094,205.9899292,0.1418119669,205.9899292,3.739520788,
205.5144806,3.830724955,205.5144806,3.924968481,205.5144806,0.1727356017,205.5144806,3.665369272,
204.9993744,3.956476212,204.9993744,3.850749493,204.9993744,0.2287062407,204.9993744,3.842743158,
204.4842529,3.742934704,204.4842529,3.803897858,204.4842529,0.2360605747,204.4842529,3.672387838,
204.008728,3.902812243,204.008728,3.907452583,204.008728,0.2339612544,204.008728,3.723325491,
203.4935913,3.830437899,203.4935913,3.850759745,203.4935913,0.293232888,203.4935913,3.738955736,
203.0180511,3.736148834,203.0180511,3.761414766,203.0180511,0.3457202315,203.0180511,3.653065205,
202.5028381,3.722541809,202.5028381,3.802903175,202.5028381,0.3209308088,202.5028381,3.7328794,
201.9876251,3.7388165,201.9876251,3.767310143,201.9876251,0.3479911685,201.9876251,3.672308922,
201.5120239,3.726416349,201.5120239,3.699252367,201.5120239,0.4234648049,201.5120239,3.584226131,
200.9967651,3.765599728,200.9967651,3.694082975,200.9967651,0.4340848029,200.9967651,3.574015379,
200.4814911,3.588925123,200.4814911,3.511961937,200.4814911,0.4427085817,200.4814911,3.5720644,
200.0058289,3.611405134,200.0058289,3.702513933,200.0058289,0.5161543489,200.0058289,3.533784389,
199.4905243,3.780803442,199.4905243,3.851413012,199.4905243,0.5515776277,199.4905243,3.695462704,
199.0148163,3.766898155,199.0148163,3.877669096,199.0148163,0.5617060065,199.0148163,3.752338886,
198.4994659,3.839835882,198.4994659,3.791499615,198.4994659,0.628847599,198.4994659,3.654782772,
197.9841003,3.76975894,197.9841003,3.774558783,197.9841003,0.7040637732,197.9841003,3.696985245,
197.5083466,3.76584363,197.5083466,3.768793106,197.5083466,0.6997731328,197.5083466,3.699337006,
196.9929352,3.728937387,196.9929352,3.831954241,196.9929352,0.7454702258,196.9929352,3.737109184,
196.5171356,3.629685879,196.5171356,3.664416552,196.5171356,0.7554530501,196.5171356,3.567117453,
196.0016937,3.666936159,196.0016937,3.591751337,196.0016937,0.7120785117,196.0016937,3.558378935,
195.4862213,3.726231575,195.4862213,3.658940315,195.4862213,0.6906728148,195.4862213,3.567837954,
195.0103912,3.553774118,195.0103912,3.640886784,195.0103912,0.6424999833,195.0103912,3.569548368,
194.494873,3.576661587,194.494873,3.598583937,194.494873,0.5970063806,194.494873,3.557306051,
194.0189972,3.660134554,194.0189972,3.721075773,194.0189972,0.6054315567,194.0189972,3.621905327,
193.5034637,3.634087324,193.5034637,3.688225985,193.5034637,0.5738011003,193.5034637,3.643111229,
192.9878845,3.667433977,192.9878845,3.595559597,192.9878845,0.5105696321,192.9878845,3.48250103,
192.5119629,3.598352671,192.5119629,3.482092381,192.5119629,0.4756724238,192.5119629,3.55425024,
191.9963531,3.485547066,191.9963531,3.515541077,191.9963531,0.3859256804,191.9963531,3.40288043,
191.4807281,3.525097132,191.4807281,3.355260134,191.4807281,0.3082289994,191.4807281,3.390772104,
191.0047455,3.429277897,191.0047455,3.477585793,191.0047455,0.2600254714,191.0047455,3.394233465,
190.48909,3.551095724,190.48909,3.581129789,190.48909,0.2006868571,190.48909,3.448703051,
190.0130615,3.590368986,190.0130615,3.787866116,190.0130615,0.185925141,190.0130615,3.47520709,

Collection Time: 10/19/2023 1:41:45 PM
Operator Name  :
Scan Version 5.1.3.1042
Parameter List :
Instrument  Cary 60
Instrument Version  2.00
Start (nm)  500.0
Stop (nm)  190.0
X Mode  Nanometers
Y Mode  Abs
UV-Vis Scan Rate (nm/min)  300.00
UV-Vis Data Interval (nm)  0.50
UV-Vis Ave. Time (sec)  0.1000
Beam Mode  Dual Beam
Baseline Correction  Off
Cycle Mode  Off
Method Log     :
Method Name    :
Date/Time stamp: 10/19/2023 1:28:53 PM
Method Modifications:
UVVIS SAT Changed: 10/19/2023 1:39:31 PM, Old:0.0125, New:0.1000
Common SAT Changed: 10/19/2023 1:39:31 PM, Old:0.0125, New:0.1000
UVVIS SAT Changed: 10/19/2023 1:40:05 PM, Old:0.0125, New:0.1000
Common SAT Changed: 10/19/2023 1:40:05 PM, Old:0.0125, New:0.1000
X Start nm Changed: 10/19/2023 1:40:31 PM, Old:  800.0, New:  500.0
X Stop nm Changed: 10/19/2023 1:40:31 PM, Old:  200.0, New:  190.0
Y Max Abs Changed: 10/19/2023 1:40:31 PM, Old:     1.00, New:     2.00
Common Interval nm Changed: 10/19/2023 1:40:31 PM, Old:     5.00, New:     0.50
End Method Modifications
<Current Wavelength> , 190.0

s2,
s2
Collection Time: 10/19/2023 1:42:58 PM
Operator Name  :
Scan Version 5.1.3.1042
Parameter List :
Instrument  Cary 60
Instrument Version  2.00
Start (nm)  500.0
Stop (nm)  190.0
X Mode  Nanometers
Y Mode  Abs
UV-Vis Scan Rate (nm/min)  300.00
UV-Vis Data Interval (nm)  0.50
UV-Vis Ave. Time (sec)  0.1000
Beam Mode  Dual Beam
Baseline Correction  Off
Cycle Mode  Off
Method Log     :
Method Name    :
Date/Time stamp: 10/19/2023 1:28:53 PM
Method Modifications:
UVVIS SAT Changed: 10/19/2023 1:39:31 PM, Old:0.0125, New:0.1000
Common SAT Changed: 10/19/2023 1:39:31 PM, Old:0.0125, New:0.1000
UVVIS SAT Changed: 10/19/2023 1:40:05 PM, Old:0.0125, New:0.1000
Common SAT Changed: 10/19/2023 1:40:05 PM, Old:0.0125, New:0.1000
X Start nm Changed: 10/19/2023 1:40:31 PM, Old:  800.0, New:  500.0
X Stop nm Changed: 10/19/2023 1:40:31 PM, Old:  200.0, New:  190.0
Y Max Abs Changed: 10/19/2023 1:40:31 PM, Old:     1.00, New:     2.00
Common Interval nm Changed: 10/19/2023 1:40:31 PM, Old:     5.00, New:     0.50
End Method Modifications
<Current Wavelength> , 190.0

s3,
s3
Collection Time: 10/19/2023 1:44:08 PM
Operator Name  :
Scan Version 5.1.3.1042
Parameter List :
Instrument  Cary 60
Instrument Version  2.00
Start (nm)  500.0
Stop (nm)  190.0
X Mode  Nanometers
Y Mode  Abs
UV-Vis Scan Rate (nm/min)  300.00
UV-Vis Data Interval (nm)  0.50
UV-Vis Ave. Time (sec)  0.1000
Beam Mode  Dual Beam
Baseline Correction  Off
Cycle Mode  Off
Method Log     :
Method Name    :
Date/Time stamp: 10/19/2023 1:28:53 PM
Method Modifications:
UVVIS SAT Changed: 10/19/2023 1:39:31 PM, Old:0.0125, New:0.1000
Common SAT Changed: 10/19/2023 1:39:31 PM, Old:0.0125, New:0.1000
UVVIS SAT Changed: 10/19/2023 1:40:05 PM, Old:0.0125, New:0.1000
Common SAT Changed: 10/19/2023 1:40:05 PM, Old:0.0125, New:0.1000
X Start nm Changed: 10/19/2023 1:40:31 PM, Old:  800.0, New:  500.0
X Stop nm Changed: 10/19/2023 1:40:31 PM, Old:  200.0, New:  190.0
Y Max Abs Changed: 10/19/2023 1:40:31 PM, Old:     1.00, New:     2.00
Common Interval nm Changed: 10/19/2023 1:40:31 PM, Old:     5.00, New:     0.50
End Method Modifications
<Current Wavelength> , 190.0

1mmvapor,
1mmvapor
Collection Time: 10/19/2023 1:49:43 PM
Operator Name  :
Scan Version 5.1.3.1042
Parameter List :
Instrument  Cary 60
Instrument Version  2.00
Start (nm)  500.0
Stop (nm)  190.0
X Mode  Nanometers
Y Mode  Abs
UV-Vis Scan Rate (nm/min)  300.00
UV-Vis Data Interval (nm)  0.50
UV-Vis Ave. Time (sec)  0.1000
Beam Mode  Dual Beam
Baseline Correction  Off
Cycle Mode  Off
Method Log     :
Method Name    :
Date/Time stamp: 10/19/2023 1:28:53 PM
Method Modifications:
UVVIS SAT Changed: 10/19/2023 1:39:31 PM, Old:0.0125, New:0.1000
Common SAT Changed: 10/19/2023 1:39:31 PM, Old:0.0125, New:0.1000
UVVIS SAT Changed: 10/19/2023 1:40:05 PM, Old:0.0125, New:0.1000
Common SAT Changed: 10/19/2023 1:40:05 PM, Old:0.0125, New:0.1000
X Start nm Changed: 10/19/2023 1:40:31 PM, Old:  800.0, New:  500.0
X Stop nm Changed: 10/19/2023 1:40:31 PM, Old:  200.0, New:  190.0
Y Max Abs Changed: 10/19/2023 1:40:31 PM, Old:     1.00, New:     2.00
Common Interval nm Changed: 10/19/2023 1:40:31 PM, Old:     5.00, New:     0.50
End Method Modifications
<Current Wavelength> , 191.5
